  -0.00303	   0.00208	   0.00660	   0.00943	   0.01224	   0.01719	   0.02273	   0.02537	   0.02534	   0.02825	   0.03837	   0.05306	   0.06564	   0.07198	   0.07266	   0.06815	   0.05783	   0.04407	   0.02993	   0.01600	   0.00255	  -0.00954	  -0.01922	  -0.02407	  -0.02297	  -0.01992	  -0.01984	  -0.02284	  -0.02684	  -0.03280	  -0.04223	  -0.05235	  -0.05839	  -0.05852	  -0.05474	  -0.04991	  -0.04544	  -0.04186	  -0.03885	  -0.03624	  -0.03601	  -0.03977	  -0.04604	  -0.05291	  -0.06019	  -0.06648	  -0.06907	  -0.06709	  -0.06057	  -0.05041	  -0.03989	  -0.03297	  -0.03160	  -0.03504	  -0.04150	  -0.04863	  -0.05320	  -0.05393	  -0.05281	  -0.05000	  -0.04342	  -0.03527	  -0.02865	  -0.02250	  -0.01611	  -0.00882	   0.00287	   0.02226	   0.04901	   0.07672	   0.09570	   0.09969	   0.08773	   0.06104	   0.02080	  -0.03033	  -0.08524	  -0.13402	  -0.17038	  -0.19459	  -0.20934	  -0.21426	  -0.20883	  -0.19590	  -0.17457	  -0.13411	  -0.05921	   0.05851	   0.21084	   0.37466	   0.52312	   0.63638	   0.70777	   0.74460	   0.76230	   0.77537	   0.79000	   0.80033	   0.79239	   0.75503	   0.68897	   0.60365	   0.50679	   0.40333	   0.29839	   0.19459	   0.09421	   0.00468	  -0.06445	  -0.10914	  -0.13393	  -0.14754	  -0.15637	  -0.16394	  -0.17242	  -0.18162	  -0.19106	  -0.20157	  -0.21138	  -0.21732	  -0.21870	  -0.21595	  -0.21113	  -0.20816	  -0.20774	  -0.20817	  -0.21063	  -0.21666	  -0.22345	  -0.22713	  -0.22707	  -0.22308	  -0.21526	  -0.20570	  -0.19663	  -0.19123	  -0.19113	  -0.19407	  -0.19846	  -0.20425	  -0.20925	  -0.21057	  -0.20921	  -0.20640	  -0.20052	  -0.19323	  -0.18717	  -0.18161	  -0.17756	  -0.17767	  -0.18096	  -0.18409	  -0.18623	  -0.18907	  -0.19280	  -0.19589	  -0.19631	  -0.19208	  -0.18361	  -0.17477
   0.01144	   0.01890	   0.03014	   0.04460	   0.05971	   0.07040	   0.07510	   0.07598	   0.07492	   0.07387	   0.07390	   0.07472	   0.07663	   0.07890	   0.07876	   0.07461	   0.06805	   0.06098	   0.05196	   0.03958	   0.02701	   0.01645	   0.00610	  -0.00358	  -0.01055	  -0.01427	  -0.01381	  -0.00933	  -0.00436	  -0.00366	  -0.00728	  -0.01032	  -0.01038	  -0.00836	  -0.00601	  -0.00709	  -0.01332	  -0.01996	  -0.02114	  -0.01703	  -0.01293	  -0.01265	  -0.01486	  -0.01756	  -0.02183	  -0.02822	  -0.03353	  -0.03355	  -0.02741	  -0.01959	  -0.01324	  -0.00524	   0.00407	   0.00751	   0.00212	  -0.00758	  -0.01715	  -0.02463	  -0.02711	  -0.02248	  -0.01306	  -0.00303	   0.00517	   0.01136	   0.01637	   0.02086	   0.02622	   0.03442	   0.04819	   0.06942	   0.09412	   0.11287	   0.11724	   0.10366	   0.07021	   0.01672	  -0.04887	  -0.11257	  -0.16333	  -0.19628	  -0.20901	  -0.20100	  -0.17909	  -0.15384	  -0.12551	  -0.07923	   0.00359	   0.13069	   0.29173	   0.46104	   0.60859	   0.71248	   0.76789	   0.78705	   0.78916	   0.78940	   0.79101	   0.78592	   0.76485	   0.72341	   0.66079	   0.57833	   0.47873	   0.36453	   0.23907	   0.11268	   0.00213	  -0.08085	  -0.13415	  -0.16071	  -0.16798	  -0.16704	  -0.16654	  -0.16981	  -0.17743	  -0.18861	  -0.20097	  -0.21276	  -0.22293	  -0.22940	  -0.23026	  -0.22547	  -0.21841	  -0.21316	  -0.20948	  -0.20603	  -0.20397	  -0.20551	  -0.21189	  -0.22064	  -0.22571	  -0.22377	  -0.21745	  -0.21062	  -0.20485	  -0.19964	  -0.19466	  -0.19096	  -0.18939	  -0.19041	  -0.19407	  -0.19989	  -0.20774	  -0.21554	  -0.21850	  -0.21448	  -0.20526	  -0.19277	  -0.17979	  -0.17156	  -0.17230	  -0.18047	  -0.18976	  -0.19541	  -0.19667	  -0.19370	  -0.18789	  -0.18292	  -0.18000	  -0.17704
   0.04967	   0.04473	   0.03813	   0.03409	   0.03678	   0.04430	   0.05183	   0.05876	   0.06743	   0.07808	   0.08851	   0.09578	   0.09870	   0.09793	   0.09391	   0.08784	   0.08257	   0.07991	   0.07880	   0.07806	   0.07769	   0.07699	   0.07392	   0.06661	   0.05598	   0.04443	   0.03327	   0.02433	   0.02010	   0.02078	   0.02341	   0.02362	   0.01965	   0.01389	   0.00864	   0.00452	   0.00261	   0.00194	  -0.00026	  -0.00379	  -0.00598	  -0.00593	  -0.00557	  -0.00577	  -0.00457	  -0.00103	   0.00135	  -0.00300	  -0.01356	  -0.02308	  -0.02674	  -0.02469	  -0.01982	  -0.01528	  -0.01151	  -0.00676	  -0.00070	   0.00374	   0.00434	   0.00198	  -0.00209	  -0.00678	  -0.00978	  -0.00907	  -0.00487	   0.00194	   0.01082	   0.02173	   0.03610	   0.05553	   0.07916	   0.10154	   0.11402	   0.10858	   0.08079	   0.03286	  -0.02743	  -0.09011	  -0.14104	  -0.16251	  -0.14513	  -0.09928	  -0.04986	  -0.01770	  -0.00380	   0.01186	   0.05669	   0.14803	   0.28150	   0.43337	   0.57362	   0.68069	   0.75022	   0.78988	   0.80948	   0.81655	   0.81486	   0.80290	   0.77383	   0.72278	   0.65501	   0.57977	   0.49905	   0.40842	   0.30384	   0.18680	   0.06767	  -0.03789	  -0.11697	  -0.16467	  -0.18584	  -0.19097	  -0.18948	  -0.18780	  -0.18932	  -0.19396	  -0.19904	  -0.20333	  -0.20876	  -0.21574	  -0.22153	  -0.22436	  -0.22610	  -0.22866	  -0.22980	  -0.22706	  -0.22211	  -0.21747	  -0.21280	  -0.20675	  -0.20228	  -0.20518	  -0.21505	  -0.22464	  -0.22898	  -0.22973	  -0.22971	  -0.22701	  -0.21929	  -0.20917	  -0.20007	  -0.19415	  -0.19362	  -0.19844	  -0.20559	  -0.21173	  -0.21605	  -0.21813	  -0.21584	  -0.20854	  -0.19782	  -0.18663	  -0.17967	  -0.17926	  -0.18236	  -0.18514	  -0.18652	  -0.18773	  -0.19108	  -0.19643
   0.03885	   0.03941	   0.03616	   0.03180	   0.03004	   0.03104	   0.03401	   0.03909	   0.04625	   0.05654	   0.07159	   0.08951	   0.10668	   0.12052	   0.12675	   0.12240	   0.11127	   0.09841	   0.08461	   0.06936	   0.05475	   0.04477	   0.04040	   0.03886	   0.03730	   0.03466	   0.03134	   0.02767	   0.02213	   0.01179	  -0.00298	  -0.01555	  -0.01724	  -0.00604	   0.01017	   0.02067	   0.02021	   0.01115	  -0.00039	  -0.01068	  -0.01978	  -0.02738	  -0.03247	  -0.03456	  -0.03222	  -0.02614	  -0.02094	  -0.01837	  -0.01555	  -0.01109	  -0.00674	  -0.00473	  -0.00602	  -0.01071	  -0.01696	  -0.01993	  -0.01692	  -0.00931	   0.00081	   0.01030	   0.01653	   0.01833	   0.01545	   0.01061	   0.00836	   0.01149	   0.02119	   0.03997	   0.06941	   0.10655	   0.14272	   0.16550	   0.16490	   0.13807	   0.08981	   0.02932	  -0.03498	  -0.09599	  -0.14518	  -0.17537	  -0.18499	  -0.17720	  -0.15974	  -0.14009	  -0.11474	  -0.06773	   0.02028	   0.15681	   0.32538	   0.49419	   0.63631	   0.73795	   0.79875	   0.82951	   0.84440	   0.85123	   0.84583	   0.81779	   0.76141	   0.67894	   0.57755	   0.46490	   0.34711	   0.22987	   0.12068	   0.02875	  -0.03901	  -0.08101	  -0.10243	  -0.11365	  -0.12196	  -0.12954	  -0.13915	  -0.15261	  -0.16749	  -0.17967	  -0.18653	  -0.18706	  -0.18269	  -0.17705	  -0.17365	  -0.17453	  -0.17842	  -0.18291	  -0.18726	  -0.18983	  -0.18986	  -0.18998	  -0.19025	  -0.18654	  -0.17767	  -0.16684	  -0.15896	  -0.15774	  -0.16166	  -0.16631	  -0.16965	  -0.17211	  -0.17485	  -0.17819	  -0.17994	  -0.17730	  -0.17046	  -0.16199	  -0.15494	  -0.15200	  -0.15363	  -0.15804	  -0.16348	  -0.16874	  -0.17252	  -0.17409	  -0.17310	  -0.16886	  -0.16246	  -0.15656	  -0.15273	  -0.15135	  -0.15181	  -0.15345
   0.03448	   0.04696	   0.06067	   0.07349	   0.08250	   0.08712	   0.08895	   0.08927	   0.08771	   0.08303	   0.07537	   0.06805	   0.06410	   0.06106	   0.05540	   0.04803	   0.03974	   0.02823	   0.01247	  -0.00392	  -0.01519	  -0.01961	  -0.01978	  -0.01836	  -0.01870	  -0.02249	  -0.02650	  -0.02761	  -0.02488	  -0.01924	  -0.01494	  -0.01642	  -0.02456	  -0.03587	  -0.04436	  -0.04672	  -0.04353	  -0.03732	  -0.03178	  -0.02966	  -0.03141	  -0.03497	  -0.03741	  -0.03967	  -0.04415	  -0.04853	  -0.04895	  -0.04394	  -0.03477	  -0.02563	  -0.01971	  -0.01681	  -0.01687	  -0.02055	  -0.02632	  -0.03195	  -0.03686	  -0.04041	  -0.04113	  -0.03793	  -0.03122	  -0.02190	  -0.01050	   0.00072	   0.00980	   0.01986	   0.03702	   0.06232	   0.08809	   0.10477	   0.10837	   0.09993	   0.08060	   0.05025	   0.00953	  -0.04031	  -0.09492	  -0.14508	  -0.18239	  -0.20345	  -0.21026	  -0.20816	  -0.20153	  -0.18919	  -0.16342	  -0.11389	  -0.03021	   0.09281	   0.24582	   0.40531	   0.54510	   0.64795	   0.71124	   0.74501	   0.76397	   0.77852	   0.79128	   0.79810	   0.78989	   0.75788	   0.69926	   0.61788	   0.52248	   0.42003	   0.31202	   0.20155	   0.09681	   0.00659	  -0.06424	  -0.11506	  -0.14673	  -0.16227	  -0.16856	  -0.17257	  -0.17862	  -0.18880	  -0.20208	  -0.21446	  -0.22167	  -0.22214	  -0.21804	  -0.21292	  -0.20849	  -0.20609	  -0.20799	  -0.21322	  -0.21838	  -0.22320	  -0.23019	  -0.23850	  -0.24166	  -0.23581	  -0.22471	  -0.21396	  -0.20636	  -0.20265	  -0.20250	  -0.20573	  -0.21179	  -0.21798	  -0.22170	  -0.22194	  -0.21931	  -0.21599	  -0.21301	  -0.20921	  -0.20404	  -0.20029	  -0.20115	  -0.20517	  -0.20903	  -0.21259	  -0.21656	  -0.21821	  -0.21450	  -0.20732	  -0.20032	  -0.19409	  -0.18844	  -0.18549
   0.02280	   0.02308	   0.02886	   0.04124	   0.05809	   0.07459	   0.08589	   0.09053	   0.09229	   0.09395	   0.09396	   0.09211	   0.09003	   0.08741	   0.08234	   0.07491	   0.06943	   0.06983	   0.07391	   0.07577	   0.07237	   0.06340	   0.04849	   0.03065	   0.01737	   0.01409	   0.01819	   0.02278	   0.02488	   0.02475	   0.02144	   0.01457	   0.00778	   0.00540	   0.00623	   0.00574	   0.00256	  -0.00052	  -0.00142	  -0.00116	  -0.00043	   0.00188	   0.00523	   0.00682	   0.00467	  -0.00119	  -0.00892	  -0.01568	  -0.01887	  -0.01777	  -0.01450	  -0.01004	  -0.00306	   0.00488	   0.01048	   0.01376	   0.01531	   0.01282	   0.00563	  -0.00232	  -0.00672	  -0.00679	  -0.00323	   0.00322	   0.01044	   0.01738	   0.02601	   0.03865	   0.05656	   0.07850	   0.09773	   0.10613	   0.10092	   0.08204	   0.04684	  -0.00581	  -0.06716	  -0.12137	  -0.15558	  -0.16202	  -0.14021	  -0.10151	  -0.06342	  -0.03875	  -0.02574	  -0.00323	   0.05467	   0.15740	   0.29524	   0.44564	   0.58115	   0.68237	   0.74569	   0.77915	   0.79394	   0.79819	   0.79450	   0.78034	   0.74989	   0.69942	   0.63299	   0.55688	   0.46918	   0.36456	   0.24642	   0.12513	   0.01075	  -0.08614	  -0.15426	  -0.18771	  -0.19090	  -0.17751	  -0.16369	  -0.16007	  -0.16671	  -0.17597	  -0.18463	  -0.19753	  -0.21537	  -0.22996	  -0.23412	  -0.22804	  -0.21689	  -0.20670	  -0.20128	  -0.20003	  -0.19887	  -0.19527	  -0.19219	  -0.19516	  -0.20495	  -0.21715	  -0.22697	  -0.23057	  -0.22661	  -0.21717	  -0.20560	  -0.19444	  -0.18443	  -0.17733	  -0.17684	  -0.18371	  -0.19344	  -0.20100	  -0.20426	  -0.20173	  -0.19307	  -0.18208	  -0.17375	  -0.16877	  -0.16526	  -0.16371	  -0.16638	  -0.17369	  -0.18286	  -0.19052	  -0.19481	  -0.19497	  -0.19231	  -0.18928
  -0.01426	  -0.00697	   0.00288	   0.01455	   0.02481	   0.03034	   0.03159	   0.03258	   0.03684	   0.04581	   0.05953	   0.07624	   0.09156	   0.09915	   0.09684	   0.08902	   0.07898	   0.06530	   0.04637	   0.02567	   0.00925	  -0.00055	  -0.00432	  -0.00408	  -0.00337	  -0.00394	  -0.00399	  -0.00339	  -0.00540	  -0.01121	  -0.01935	  -0.02682	  -0.03040	  -0.03052	  -0.02854	  -0.02553	  -0.02364	  -0.02355	  -0.02443	  -0.02532	  -0.02521	  -0.02484	  -0.02576	  -0.02859	  -0.03371	  -0.03971	  -0.04382	  -0.04328	  -0.03692	  -0.02781	  -0.01994	  -0.01529	  -0.01494	  -0.01860	  -0.02363	  -0.02711	  -0.02838	  -0.02824	  -0.02784	  -0.02749	  -0.02591	  -0.02218	  -0.01490	  -0.00320	   0.01054	   0.02455	   0.03987	   0.05699	   0.07436	   0.08744	   0.09067	   0.08275	   0.06721	   0.04642	   0.01772	  -0.02116	  -0.06552	  -0.10844	  -0.14808	  -0.18625	  -0.22473	  -0.26302	  -0.29794	  -0.32595	  -0.34237	  -0.34104	  -0.31943	  -0.28088	  -0.23118	  -0.17722	  -0.12774	  -0.09122	  -0.07232	  -0.06544	  -0.05511	  -0.03043	   0.00622	   0.04548	   0.07804	   0.09761	   0.10360	   0.09948	   0.08932	   0.07721	   0.06731	   0.06233	   0.06347	   0.07164	   0.08383	   0.09414	   0.10095	   0.10457	   0.10346	   0.09801	   0.09112	   0.08523	   0.08136	   0.07905	   0.07719	   0.07571	   0.07702	   0.08240	   0.08915	   0.09446	   0.09606	   0.09286	   0.08796	   0.08419	   0.07951	   0.07187	   0.06397	   0.06064	   0.06380	   0.07145	   0.08039	   0.08732	   0.08883	   0.08449	   0.07779	   0.07043	   0.06168	   0.05304	   0.04844	   0.05134	   0.06040	   0.07013	   0.07699	   0.08035	   0.08045	   0.07787	   0.07331	   0.06775	   0.06183	   0.05661	   0.05407	   0.05498	   0.05896	   0.06541	   0.07214	   0.07545
  -0.01975	  -0.01749	  -0.01327	  -0.00750	   0.00023	   0.01066	   0.02172	   0.03033	   0.03705	   0.04431	   0.05131	   0.05465	   0.05180	   0.04164	   0.02644	   0.01230	   0.00272	  -0.00446	  -0.01117	  -0.01515	  -0.01428	  -0.01055	  -0.00821	  -0.00932	  -0.01264	  -0.01871	  -0.03055	  -0.04712	  -0.06224	  -0.06773	  -0.05827	  -0.03833	  -0.01922	  -0.00937	  -0.01042	  -0.01857	  -0.02910	  -0.04010	  -0.04991	  -0.05500	  -0.05465	  -0.05259	  -0.05063	  -0.04637	  -0.03999	  -0.03545	  -0.03375	  -0.03130	  -0.02606	  -0.02171	  -0.02296	  -0.03004	  -0.03955	  -0.04631	  -0.04580	  -0.03760	  -0.02629	  -0.01764	  -0.01266	  -0.00906	  -0.00841	  -0.01397	  -0.02363	  -0.03102	  -0.03193	  -0.02641	  -0.01483	   0.00605	   0.03824	   0.07413	   0.09984	   0.10668	   0.09460	   0.06578	   0.02030	  -0.04038	  -0.10921	  -0.17103	  -0.20764	  -0.20942	  -0.17854	  -0.12765	  -0.07722	  -0.04462	  -0.03157	  -0.01937	   0.02208	   0.11342	   0.24921	   0.40087	   0.53618	   0.63929	   0.71302	   0.76495	   0.79891	   0.81811	   0.82622	   0.82294	   0.80346	   0.76319	   0.70192	   0.62522	   0.54048	   0.45072	   0.35424	   0.25005	   0.14206	   0.03916	  -0.04711	  -0.10923	  -0.14811	  -0.16893	  -0.17771	  -0.18092	  -0.18314	  -0.18635	  -0.19108	  -0.19591	  -0.19812	  -0.19725	  -0.19648	  -0.19983	  -0.20707	  -0.21465	  -0.22097	  -0.22433	  -0.22242	  -0.21575	  -0.20664	  -0.19776	  -0.19228	  -0.19349	  -0.20170	  -0.21213	  -0.21904	  -0.22129	  -0.22127	  -0.21984	  -0.21659	  -0.21156	  -0.20385	  -0.19352	  -0.18365	  -0.17805	  -0.17860	  -0.18387	  -0.18993	  -0.19518	  -0.20090	  -0.20475	  -0.20262	  -0.19646	  -0.19161	  -0.18883	  -0.18563	  -0.18157	  -0.17811	  -0.17760	  -0.18230	  -0.19097
   0.07098	   0.06841	   0.06131	   0.05317	   0.04728	   0.04500	   0.04638	   0.05255	   0.06375	   0.07763	   0.09217	   0.10558	   0.11484	   0.11885	   0.11814	   0.11204	   0.09951	   0.08254	   0.06836	   0.06329	   0.06529	   0.06723	   0.06560	   0.06164	   0.05566	   0.04779	   0.04004	   0.03148	   0.01816	   0.00022	  -0.01592	  -0.02264	  -0.01766	  -0.00511	   0.00882	   0.01831	   0.01933	   0.01206	   0.00004	  -0.01222	  -0.02180	  -0.02717	  -0.02750	  -0.02450	  -0.01983	  -0.01313	  -0.00543	  -0.00035	  -0.00073	  -0.00569	  -0.01214	  -0.01821	  -0.02377	  -0.02731	  -0.02597	  -0.02010	  -0.01378	  -0.01045	  -0.00826	  -0.00415	  -0.00067	  -0.00066	  -0.00156	  -0.00105	  -0.00027	   0.00170	   0.00859	   0.02356	   0.04820	   0.07905	   0.10710	   0.12301	   0.12116	   0.09826	   0.05169	  -0.01580	  -0.09139	  -0.15665	  -0.19662	  -0.20420	  -0.18270	  -0.14627	  -0.11045	  -0.07832	  -0.03555	   0.03867	   0.15366	   0.30087	   0.45879	   0.60025	   0.70476	   0.76946	   0.80695	   0.83197	   0.84873	   0.85066	   0.82846	   0.77450	   0.68763	   0.57803	   0.46062	   0.34452	   0.23217	   0.12500	   0.02830	  -0.04843	  -0.09849	  -0.12464	  -0.13738	  -0.14687	  -0.15743	  -0.16940	  -0.18038	  -0.18739	  -0.19152	  -0.19534	  -0.19820	  -0.19870	  -0.19805	  -0.19725	  -0.19483	  -0.19175	  -0.19180	  -0.19603	  -0.20328	  -0.21098	  -0.21552	  -0.21637	  -0.21459	  -0.20988	  -0.20224	  -0.19388	  -0.18909	  -0.19041	  -0.19577	  -0.20086	  -0.20362	  -0.20528	  -0.20688	  -0.20754	  -0.20529	  -0.19921	  -0.19137	  -0.18474	  -0.18120	  -0.18041	  -0.18059	  -0.18200	  -0.18492	  -0.18803	  -0.19085	  -0.19276	  -0.19177	  -0.18627	  -0.17676	  -0.16703	  -0.16246	  -0.16449	  -0.16985	  -0.17477
   0.03903	   0.04679	   0.05764	   0.06862	   0.07951	   0.09107	   0.10045	   0.10470	   0.10622	   0.10878	   0.11148	   0.11119	   0.10771	   0.10324	   0.09937	   0.09699	   0.09560	   0.09123	   0.07922	   0.06078	   0.04293	   0.03094	   0.02557	   0.02519	   0.02638	   0.02597	   0.02359	   0.02108	   0.01880	   0.01539	   0.01137	   0.00843	   0.00679	   0.00542	   0.00273	  -0.00123	  -0.00433	  -0.00473	  -0.00125	   0.00446	   0.00655	   0.00234	  -0.00402	  -0.00942	  -0.01452	  -0.01882	  -0.02144	  -0.02222	  -0.01960	  -0.01366	  -0.00665	   0.00006	   0.00428	   0.00415	   0.00153	  -0.00183	  -0.00739	  -0.01487	  -0.01982	  -0.01824	  -0.01015	   0.00094	   0.01173	   0.02235	   0.03413	   0.04794	   0.06572	   0.08862	   0.11355	   0.13265	   0.13776	   0.12692	   0.10388	   0.07139	   0.02917	  -0.02041	  -0.07014	  -0.11224	  -0.14196	  -0.15979	  -0.16954	  -0.17322	  -0.16941	  -0.15320	  -0.11537	  -0.04236	   0.07722	   0.23897	   0.41794	   0.58078	   0.70154	   0.77382	   0.81095	   0.82991	   0.83887	   0.83916	   0.82894	   0.80219	   0.75198	   0.67758	   0.58445	   0.47835	   0.36359	   0.24447	   0.12802	   0.02553	  -0.05233	  -0.10161	  -0.12593	  -0.13332	  -0.13293	  -0.13252	  -0.13513	  -0.14043	  -0.14965	  -0.16384	  -0.17978	  -0.19258	  -0.19953	  -0.19964	  -0.19399	  -0.18679	  -0.18202	  -0.17994	  -0.17919	  -0.18029	  -0.18362	  -0.18907	  -0.19791	  -0.20709	  -0.21035	  -0.20862	  -0.20618	  -0.20222	  -0.19543	  -0.18800	  -0.18181	  -0.17695	  -0.17416	  -0.17464	  -0.17846	  -0.18534	  -0.19290	  -0.19584	  -0.19201	  -0.18378	  -0.17387	  -0.16613	  -0.16419	  -0.16675	  -0.17110	  -0.17701	  -0.18318	  -0.18662	  -0.18677	  -0.18533	  -0.18179	  -0.17524	  -0.16845	  -0.16362
   0.01633	   0.01376	   0.01107	   0.01326	   0.02344	   0.03902	   0.05430	   0.06591	   0.07336	   0.07757	   0.07906	   0.07748	   0.07352	   0.06849	   0.06446	   0.06304	   0.06253	   0.06117	   0.05905	   0.05461	   0.04486	   0.02883	   0.01030	  -0.00360	  -0.00994	  -0.01090	  -0.00839	  -0.00486	  -0.00339	  -0.00260	   0.00199	   0.01070	   0.01823	   0.01939	   0.01239	  -0.00108	  -0.01567	  -0.02579	  -0.02874	  -0.02522	  -0.01887	  -0.01379	  -0.01219	  -0.01418	  -0.01931	  -0.02695	  -0.03520	  -0.04190	  -0.04569	  -0.04572	  -0.04176	  -0.03396	  -0.02444	  -0.01703	  -0.01388	  -0.01410	  -0.01470	  -0.01539	  -0.01975	  -0.02825	  -0.03635	  -0.03790	  -0.02938	  -0.01493	  -0.00070	   0.01426	   0.03401	   0.05903	   0.08559	   0.10802	   0.12088	   0.11849	   0.09706	   0.05899	   0.00959	  -0.04706	  -0.10540	  -0.15589	  -0.18841	  -0.19638	  -0.17979	  -0.14820	  -0.11591	  -0.09282	  -0.07637	  -0.04758	   0.01867	   0.13436	   0.28764	   0.44923	   0.58918	   0.69101	   0.75315	   0.78301	   0.79348	   0.79646	   0.79653	   0.78909	   0.76432	   0.71852	   0.65792	   0.58983	   0.51453	   0.42656	   0.32262	   0.20633	   0.08798	  -0.01799	  -0.09927	  -0.15050	  -0.17304	  -0.17557	  -0.17066	  -0.16687	  -0.16826	  -0.17601	  -0.18819	  -0.20139	  -0.21260	  -0.22165	  -0.22978	  -0.23581	  -0.23813	  -0.23579	  -0.22678	  -0.21246	  -0.20056	  -0.19819	  -0.20433	  -0.21336	  -0.22205	  -0.22957	  -0.23357	  -0.23223	  -0.22734	  -0.22084	  -0.21400	  -0.20777	  -0.20186	  -0.19717	  -0.19513	  -0.19593	  -0.19960	  -0.20527	  -0.21018	  -0.21312	  -0.21447	  -0.21060	  -0.19899	  -0.18689	  -0.18308	  -0.18616	  -0.18973	  -0.19276	  -0.19696	  -0.20072	  -0.20170	  -0.19972	  -0.19613	  -0.19243
   0.05430	   0.05971	   0.06702	   0.07262	   0.07581	   0.07811	   0.08046	   0.08403	   0.08923	   0.09559	   0.10310	   0.11023	   0.11386	   0.11284	   0.10962	   0.10665	   0.10314	   0.09689	   0.08647	   0.07334	   0.06076	   0.05060	   0.04350	   0.04026	   0.04115	   0.04440	   0.04699	   0.04576	   0.03868	   0.02750	   0.01829	   0.01533	   0.01562	   0.01466	   0.01347	   0.01345	   0.01270	   0.01240	   0.01592	   0.02027	   0.01943	   0.01380	   0.00734	   0.00048	  -0.00673	  -0.01188	  -0.01264	  -0.00724	   0.00237	   0.01002	   0.01266	   0.01200	   0.00994	   0.00730	   0.00427	   0.00139	   0.00010	   0.00117	   0.00486	   0.01141	   0.02003	   0.02792	   0.03227	   0.03378	   0.03608	   0.04167	   0.05023	   0.06197	   0.07936	   0.10271	   0.12525	   0.13543	   0.12465	   0.09103	   0.03806	  -0.02776	  -0.09660	  -0.15324	  -0.18214	  -0.17816	  -0.14942	  -0.11253	  -0.08119	  -0.05448	  -0.01739	   0.05126	   0.16497	   0.31590	   0.47612	   0.61287	   0.70697	   0.75947	   0.78507	   0.80093	   0.81620	   0.82849	   0.82730	   0.79994	   0.73992	   0.65189	   0.54684	   0.43401	   0.31778	   0.20165	   0.09307	   0.00144	  -0.06735	  -0.11185	  -0.13484	  -0.14476	  -0.15001	  -0.15317	  -0.15561	  -0.16115	  -0.17235	  -0.18736	  -0.20167	  -0.21075	  -0.21328	  -0.21241	  -0.21056	  -0.20719	  -0.20254	  -0.19905	  -0.19884	  -0.20255	  -0.21074	  -0.22091	  -0.22541	  -0.22052	  -0.21166	  -0.20421	  -0.19792	  -0.19094	  -0.18340	  -0.17876	  -0.18062	  -0.18766	  -0.19519	  -0.20112	  -0.20538	  -0.20614	  -0.20241	  -0.19685	  -0.19178	  -0.18720	  -0.18356	  -0.18157	  -0.18162	  -0.18496	  -0.19106	  -0.19651	  -0.19842	  -0.19725	  -0.19539	  -0.19305	  -0.18842	  -0.18182	  -0.17652	  -0.17528
   0.04151	   0.04057	   0.03584	   0.02917	   0.02480	   0.02341	   0.02274	   0.02347	   0.02858	   0.03809	   0.04811	   0.05612	   0.06385	   0.07277	   0.08147	   0.08757	   0.08978	   0.08969	   0.08936	   0.08784	   0.08318	   0.07525	   0.06434	   0.05066	   0.03672	   0.02459	   0.01291	   0.00068	  -0.01078	  -0.01948	  -0.02403	  -0.02482	  -0.02250	  -0.01707	  -0.01039	  -0.00467	  -0.00127	  -0.00290	  -0.01063	  -0.02248	  -0.03517	  -0.04337	  -0.04272	  -0.03525	  -0.02688	  -0.02074	  -0.01692	  -0.01524	  -0.01608	  -0.02057	  -0.02823	  -0.03580	  -0.03986	  -0.03900	  -0.03353	  -0.02521	  -0.01699	  -0.01041	  -0.00418	   0.00166	   0.00335	  -0.00070	  -0.00725	  -0.01203	  -0.01168	  -0.00360	   0.01504	   0.04543	   0.08441	   0.12219	   0.14438	   0.14221	   0.11572	   0.06779	   0.00452	  -0.06346	  -0.12499	  -0.17016	  -0.19300	  -0.19501	  -0.18310	  -0.16567	  -0.14800	  -0.12539	  -0.08082	   0.00559	   0.13925	   0.30356	   0.46954	   0.60965	   0.70912	   0.77042	   0.80507	   0.82396	   0.83349	   0.83293	   0.81473	   0.76999	   0.69687	   0.60419	   0.50421	   0.40264	   0.29910	   0.19592	   0.10091	   0.02174	  -0.03923	  -0.08351	  -0.11359	  -0.13398	  -0.15005	  -0.16466	  -0.17670	  -0.18214	  -0.18027	  -0.17646	  -0.17562	  -0.17707	  -0.17782	  -0.17811	  -0.18173	  -0.19061	  -0.20031	  -0.20580	  -0.20817	  -0.21034	  -0.21116	  -0.20729	  -0.19874	  -0.18891	  -0.18111	  -0.17744	  -0.17837	  -0.18215	  -0.18642	  -0.18993	  -0.19237	  -0.19299	  -0.19017	  -0.18342	  -0.17534	  -0.16952	  -0.16693	  -0.16569	  -0.16412	  -0.16304	  -0.16403	  -0.16699	  -0.17098	  -0.17500	  -0.17673	  -0.17410	  -0.16893	  -0.16518	  -0.16386	  -0.16316	  -0.16273	  -0.16370	  -0.16685	  -0.17225
   0.04404	   0.05209	   0.05207	   0.04781	   0.04229	   0.03812	   0.04029	   0.05110	   0.06568	   0.07847	   0.08752	   0.09303	   0.09614	   0.09446	   0.08511	   0.07093	   0.05679	   0.04543	   0.03632	   0.02785	   0.02061	   0.01481	   0.00950	   0.00619	   0.00721	   0.00975	   0.00798	   0.00004	  -0.01143	  -0.02057	  -0.02253	  -0.01831	  -0.01145	  -0.00557	  -0.00376	  -0.00661	  -0.01263	  -0.01844	  -0.02076	  -0.02076	  -0.02211	  -0.02540	  -0.02890	  -0.03157	  -0.03286	  -0.03176	  -0.02749	  -0.01987	  -0.01003	  -0.00257	  -0.00249	  -0.00949	  -0.01926	  -0.02793	  -0.03307	  -0.03346	  -0.03026	  -0.02475	  -0.01644	  -0.00583	   0.00522	   0.01430	   0.01919	   0.02054	   0.02069	   0.02254	   0.03073	   0.04855	   0.07424	   0.09923	   0.11162	   0.10508	   0.08159	   0.04408	  -0.00761	  -0.07028	  -0.13282	  -0.18007	  -0.20079	  -0.19232	  -0.15819	  -0.10962	  -0.06497	  -0.03520	  -0.01378	   0.01956	   0.08684	   0.19456	   0.32727	   0.45926	   0.56907	   0.64726	   0.69724	   0.73048	   0.75742	   0.78094	   0.79869	   0.80538	   0.79325	   0.75688	   0.69736	   0.62269	   0.54268	   0.46233	   0.38224	   0.30019	   0.21079	   0.11308	   0.01662	  -0.06619	  -0.12758	  -0.16580	  -0.18538	  -0.19387	  -0.19776	  -0.20190	  -0.20965	  -0.21889	  -0.22335	  -0.22042	  -0.21331	  -0.20851	  -0.21169	  -0.22234	  -0.23477	  -0.24403	  -0.24831	  -0.24852	  -0.24638	  -0.24288	  -0.23932	  -0.23564	  -0.22892	  -0.21875	  -0.21018	  -0.20932	  -0.21744	  -0.22952	  -0.23871	  -0.24177	  -0.24032	  -0.23811	  -0.23649	  -0.23260	  -0.22546	  -0.21912	  -0.21587	  -0.21576	  -0.21915	  -0.22438	  -0.22931	  -0.23257	  -0.23233	  -0.22777	  -0.22027	  -0.21243	  -0.20621	  -0.20210	  -0.20000	  -0.20101
   0.06482	   0.06396	   0.06586	   0.06829	   0.06998	   0.07376	   0.08344	   0.09997	   0.11944	   0.13384	   0.13686	   0.12898	   0.11543	   0.10103	   0.08744	   0.07432	   0.06182	   0.05235	   0.04871	   0.04968	   0.05108	   0.05050	   0.04762	   0.04217	   0.03321	   0.02093	   0.00794	  -0.00313	  -0.01091	  -0.01353	  -0.00905	   0.00052	   0.01012	   0.01587	   0.01554	   0.00783	  -0.00634	  -0.02205	  -0.03299	  -0.03682	  -0.03509	  -0.03009	  -0.02411	  -0.01918	  -0.01523	  -0.01089	  -0.00703	  -0.00586	  -0.00825	  -0.01317	  -0.01809	  -0.02154	  -0.02381	  -0.02453	  -0.02239	  -0.01607	  -0.00570	   0.00480	   0.00904	   0.00502	  -0.00205	  -0.00722	  -0.01087	  -0.01381	  -0.01236	  -0.00064	   0.02220	   0.05197	   0.08716	   0.12602	   0.15721	   0.16688	   0.15016	   0.10876	   0.04753	  -0.02425	  -0.09356	  -0.14799	  -0.18006	  -0.18826	  -0.17751	  -0.15875	  -0.14217	  -0.12796	  -0.10464	  -0.05399	   0.04062	   0.18143	   0.34867	   0.51115	   0.64424	   0.73724	   0.79312	   0.82395	   0.84099	   0.84757	   0.83862	   0.80515	   0.74262	   0.65412	   0.54832	   0.43618	   0.32523	   0.21886	   0.12052	   0.03485	  -0.03416	  -0.08638	  -0.12367	  -0.14603	  -0.15655	  -0.16357	  -0.17149	  -0.17692	  -0.17802	  -0.17864	  -0.18012	  -0.17971	  -0.17785	  -0.17828	  -0.18220	  -0.18733	  -0.19147	  -0.19396	  -0.19489	  -0.19484	  -0.19393	  -0.19103	  -0.18535	  -0.17840	  -0.17324	  -0.17124	  -0.17113	  -0.17211	  -0.17463	  -0.17879	  -0.18372	  -0.18635	  -0.18362	  -0.17588	  -0.16717	  -0.16212	  -0.16038	  -0.15866	  -0.15793	  -0.16194	  -0.16961	  -0.17559	  -0.17791	  -0.17804	  -0.17704	  -0.17427	  -0.16741	  -0.15721	  -0.14952	  -0.14832	  -0.15160	  -0.15628	  -0.16127	  -0.16525
   0.02195	   0.03285	   0.04485	   0.05769	   0.06963	   0.07834	   0.08227	   0.08329	   0.08457	   0.08758	   0.09082	   0.09014	   0.08477	   0.07876	   0.07295	   0.06410	   0.05252	   0.04111	   0.02998	   0.01759	   0.00329	  -0.01071	  -0.01956	  -0.02090	  -0.01760	  -0.01494	  -0.01607	  -0.01968	  -0.02289	  -0.02464	  -0.02546	  -0.02711	  -0.03246	  -0.04231	  -0.05093	  -0.05135	  -0.04562	  -0.04022	  -0.03666	  -0.03372	  -0.03163	  -0.03147	  -0.03494	  -0.04211	  -0.04902	  -0.05226	  -0.05184	  -0.04780	  -0.04046	  -0.03265	  -0.02661	  -0.02196	  -0.01884	  -0.01820	  -0.01920	  -0.02176	  -0.02857	  -0.03837	  -0.04336	  -0.03889	  -0.02780	  -0.01477	  -0.00314	   0.00628	   0.01639	   0.03230	   0.05647	   0.08390	   0.10467	   0.11060	   0.09943	   0.07627	   0.04760	   0.01369	  -0.02873	  -0.07811	  -0.12627	  -0.16432	  -0.18836	  -0.19938	  -0.20099	  -0.19738	  -0.18875	  -0.16828	  -0.12258	  -0.03540	   0.10031	   0.27035	   0.44448	   0.59238	   0.69538	   0.75182	   0.77504	   0.78287	   0.78661	   0.78859	   0.78262	   0.75825	   0.71031	   0.64039	   0.55245	   0.45089	   0.34012	   0.22553	   0.11526	   0.01984	  -0.05390	  -0.10604	  -0.13784	  -0.14928	  -0.14700	  -0.14490	  -0.15133	  -0.16500	  -0.18123	  -0.19521	  -0.20490	  -0.21224	  -0.21793	  -0.22005	  -0.21938	  -0.21761	  -0.21350	  -0.20781	  -0.20500	  -0.20724	  -0.21248	  -0.21794	  -0.22107	  -0.22054	  -0.21814	  -0.21490	  -0.20841	  -0.19881	  -0.19087	  -0.18827	  -0.19050	  -0.19537	  -0.20111	  -0.20505	  -0.20540	  -0.20372	  -0.20071	  -0.19631	  -0.19331	  -0.19237	  -0.18995	  -0.18534	  -0.18162	  -0.18116	  -0.18495	  -0.19229	  -0.19989	  -0.20418	  -0.20262	  -0.19483	  -0.18507	  -0.17900	  -0.17670	  -0.17445
   0.03613	   0.04429	   0.04621	   0.04461	   0.04498	   0.04801	   0.05111	   0.05448	   0.06020	   0.06798	   0.07479	   0.07807	   0.07742	   0.07305	   0.06421	   0.05128	   0.03797	   0.02788	   0.02016	   0.01287	   0.00815	   0.00785	   0.01007	   0.01303	   0.01473	   0.01255	   0.00679	  -0.00087	  -0.00988	  -0.01752	  -0.01943	  -0.01606	  -0.01271	  -0.01280	  -0.01503	  -0.01668	  -0.01779	  -0.01927	  -0.01978	  -0.01843	  -0.01810	  -0.02380	  -0.03452	  -0.04094	  -0.03772	  -0.02948	  -0.02288	  -0.01950	  -0.01592	  -0.00918	  -0.00086	   0.00490	   0.00505	  -0.00078	  -0.00966	  -0.01664	  -0.01933	  -0.01833	  -0.01388	  -0.00688	  -0.00002	   0.00426	   0.00637	   0.00908	   0.01306	   0.01793	   0.02829	   0.04942	   0.07802	   0.10289	   0.11381	   0.10781	   0.08633	   0.04965	  -0.00267	  -0.06781	  -0.13571	  -0.18924	  -0.21307	  -0.20311	  -0.16690	  -0.11960	  -0.07742	  -0.04832	  -0.02514	   0.01423	   0.09199	   0.21059	   0.35171	   0.48926	   0.60142	   0.67865	   0.72482	   0.75181	   0.77090	   0.78745	   0.80045	   0.80201	   0.78229	   0.73772	   0.67245	   0.59392	   0.50887	   0.42182	   0.33128	   0.23074	   0.12163	   0.01752	  -0.06720	  -0.12649	  -0.16201	  -0.17788	  -0.18069	  -0.18068	  -0.18627	  -0.19965	  -0.21658	  -0.22782	  -0.22717	  -0.21869	  -0.21029	  -0.20627	  -0.20780	  -0.21341	  -0.21949	  -0.22231	  -0.22051	  -0.21651	  -0.21338	  -0.21064	  -0.20598	  -0.20029	  -0.19636	  -0.19519	  -0.19681	  -0.20061	  -0.20515	  -0.20970	  -0.21367	  -0.21619	  -0.21728	  -0.21650	  -0.21237	  -0.20473	  -0.19484	  -0.18487	  -0.17832	  -0.17840	  -0.18445	  -0.19207	  -0.19837	  -0.20398	  -0.20854	  -0.20979	  -0.20553	  -0.19463	  -0.18118	  -0.17273	  -0.17216	  -0.17696
   0.01885	   0.02163	   0.02891	   0.04009	   0.05368	   0.06802	   0.07975	   0.08618	   0.08775	   0.08584	   0.08221	   0.07784	   0.07120	   0.06362	   0.06143	   0.06731	   0.07550	   0.07796	   0.07122	   0.05764	   0.04232	   0.02876	   0.01669	   0.00587	  -0.00086	  -0.00227	  -0.00044	   0.00151	   0.00132	  -0.00006	   0.00026	   0.00301	   0.00477	   0.00056	  -0.00982	  -0.02082	  -0.02842	  -0.03264	  -0.03310	  -0.02838	  -0.01958	  -0.01202	  -0.01164	  -0.01861	  -0.02829	  -0.03664	  -0.04128	  -0.04210	  -0.04091	  -0.03806	  -0.03281	  -0.02604	  -0.01907	  -0.01229	  -0.00695	  -0.00543	  -0.00807	  -0.01261	  -0.01697	  -0.01979	  -0.01954	  -0.01469	  -0.00641	   0.00180	   0.00963	   0.02024	   0.03587	   0.05705	   0.08268	   0.10717	   0.12082	   0.11619	   0.09291	   0.05341	  -0.00097	  -0.06370	  -0.12107	  -0.16257	  -0.18479	  -0.18745	  -0.17596	  -0.16115	  -0.14816	  -0.12962	  -0.08847	  -0.00664	   0.12228	   0.28563	   0.45586	   0.60300	   0.70795	   0.76895	   0.79862	   0.81342	   0.82158	   0.81971	   0.79970	   0.75516	   0.68508	   0.59540	   0.49565	   0.39321	   0.28996	   0.18670	   0.08823	   0.00021	  -0.07314	  -0.12625	  -0.15608	  -0.16705	  -0.16731	  -0.16476	  -0.16467	  -0.16714	  -0.17061	  -0.17537	  -0.18193	  -0.19110	  -0.20242	  -0.21188	  -0.21531	  -0.21263	  -0.20671	  -0.19938	  -0.19102	  -0.18283	  -0.17719	  -0.17667	  -0.18214	  -0.19095	  -0.19840	  -0.20187	  -0.20073	  -0.19479	  -0.18587	  -0.17675	  -0.17000	  -0.16818	  -0.17102	  -0.17507	  -0.17836	  -0.18131	  -0.18413	  -0.18599	  -0.18502	  -0.18094	  -0.17633	  -0.17246	  -0.16772	  -0.16232	  -0.15939	  -0.16042	  -0.16408	  -0.16849	  -0.17216	  -0.17428	  -0.17476	  -0.17289	  -0.16735	  -0.15979
   0.03042	   0.02802	   0.02260	   0.01403	   0.00444	  -0.00077	   0.00262	   0.01449	   0.03084	   0.04673	   0.05938	   0.06953	   0.07869	   0.08604	   0.08874	   0.08410	   0.07301	   0.05987	   0.04846	   0.04121	   0.03838	   0.03637	   0.03176	   0.02561	   0.01963	   0.01198	   0.00157	  -0.00918	  -0.01716	  -0.02186	  -0.02530	  -0.02662	  -0.02216	  -0.01107	   0.00228	   0.01068	   0.01046	   0.00221	  -0.01207	  -0.02767	  -0.03893	  -0.04389	  -0.04223	  -0.03394	  -0.02375	  -0.01840	  -0.01914	  -0.02211	  -0.02387	  -0.02439	  -0.02719	  -0.03494	  -0.04408	  -0.04840	  -0.04551	  -0.03676	  -0.02610	  -0.01726	  -0.00951	  -0.00161	   0.00431	   0.00648	   0.00523	   0.00390	   0.00724	   0.01663	   0.03439	   0.06426	   0.10106	   0.13243	   0.14766	   0.13944	   0.10705	   0.05535	  -0.01052	  -0.08151	  -0.14309	  -0.18351	  -0.20034	  -0.19860	  -0.18474	  -0.16537	  -0.14622	  -0.12403	  -0.08270	  -0.00369	   0.11880	   0.27207	   0.43089	   0.56905	   0.67127	   0.73660	   0.77243	   0.79103	   0.80474	   0.81353	   0.80558	   0.77215	   0.71380	   0.63671	   0.54733	   0.45004	   0.34856	   0.24687	   0.14901	   0.05914	  -0.01758	  -0.07606	  -0.11439	  -0.13646	  -0.15051	  -0.16336	  -0.17756	  -0.19026	  -0.19546	  -0.19278	  -0.18826	  -0.18610	  -0.18711	  -0.19051	  -0.19428	  -0.19763	  -0.20149	  -0.20642	  -0.21167	  -0.21471	  -0.21175	  -0.20211	  -0.19090	  -0.18404	  -0.18350	  -0.18733	  -0.19148	  -0.19433	  -0.19774	  -0.20181	  -0.20414	  -0.20378	  -0.20064	  -0.19434	  -0.18634	  -0.17892	  -0.17373	  -0.17177	  -0.17170	  -0.17243	  -0.17567	  -0.18198	  -0.18762	  -0.18852	  -0.18615	  -0.18300	  -0.17646	  -0.16550	  -0.15664	  -0.15586	  -0.16121	  -0.16762	  -0.17322	  -0.17864
   0.02413	   0.02437	   0.02465	   0.02608	   0.02936	   0.03559	   0.04430	   0.05475	   0.06690	   0.07734	   0.08177	   0.07932	   0.07103	   0.05835	   0.04261	   0.02692	   0.01493	   0.00721	   0.00435	   0.00726	   0.01212	   0.01438	   0.01517	   0.01624	   0.01534	   0.00909	  -0.00394	  -0.02114	  -0.03665	  -0.04553	  -0.04559	  -0.03578	  -0.01842	  -0.00122	   0.00856	   0.00852	   0.00015	  -0.01190	  -0.02141	  -0.02555	  -0.02757	  -0.03228	  -0.03895	  -0.04097	  -0.03415	  -0.02175	  -0.01028	  -0.00495	  -0.00729	  -0.01387	  -0.02068	  -0.02723	  -0.03319	  -0.03524	  -0.03036	  -0.02071	  -0.01233	  -0.00857	  -0.00774	  -0.00720	  -0.00666	  -0.00690	  -0.00730	  -0.00646	  -0.00378	   0.00304	   0.02008	   0.04935	   0.08343	   0.11364	   0.13329	   0.13373	   0.10876	   0.05975	  -0.00686	  -0.08082	  -0.14854	  -0.19591	  -0.21036	  -0.18642	  -0.13470	  -0.07852	  -0.03689	  -0.01280	   0.00745	   0.04847	   0.13216	   0.25991	   0.40776	   0.54443	   0.65106	   0.72436	   0.77131	   0.80225	   0.82320	   0.83259	   0.82505	   0.79549	   0.74091	   0.66509	   0.57842	   0.48667	   0.38730	   0.27817	   0.16286	   0.05244	  -0.03843	  -0.10179	  -0.13850	  -0.15456	  -0.15933	  -0.16230	  -0.16881	  -0.17791	  -0.18557	  -0.19002	  -0.19179	  -0.19078	  -0.18767	  -0.18638	  -0.18935	  -0.19450	  -0.20003	  -0.20568	  -0.21014	  -0.21150	  -0.20864	  -0.20339	  -0.20019	  -0.19961	  -0.19731	  -0.19201	  -0.18765	  -0.18766	  -0.19197	  -0.19795	  -0.20280	  -0.20505	  -0.20309	  -0.19624	  -0.18814	  -0.18349	  -0.18304	  -0.18356	  -0.18230	  -0.18200	  -0.18659	  -0.19388	  -0.19905	  -0.20013	  -0.19717	  -0.19217	  -0.18714	  -0.18161	  -0.17607	  -0.17239	  -0.17176	  -0.17516	  -0.18149	  -0.18730
   0.01356	   0.01727	   0.02017	   0.01916	   0.01558	   0.01454	   0.01800	   0.02216	   0.02552	   0.03223	   0.04455	   0.05984	   0.07369	   0.08239	   0.08309	   0.07419	   0.05767	   0.03960	   0.02642	   0.02100	   0.02169	   0.02335	   0.02193	   0.01826	   0.01434	   0.01120	   0.00843	   0.00306	  -0.00586	  -0.01659	  -0.02748	  -0.03557	  -0.03722	  -0.03018	  -0.01605	  -0.00176	   0.00467	  -0.00000	  -0.01171	  -0.02293	  -0.03033	  -0.03501	  -0.03669	  -0.03505	  -0.03167	  -0.02606	  -0.01742	  -0.00892	  -0.00529	  -0.00820	  -0.01490	  -0.02224	  -0.02954	  -0.03616	  -0.03933	  -0.03701	  -0.03132	  -0.02464	  -0.01624	  -0.00739	  -0.00254	  -0.00262	  -0.00478	  -0.00742	  -0.00951	  -0.00848	  -0.00042	   0.01887	   0.05169	   0.09403	   0.13131	   0.14546	   0.12788	   0.08106	   0.01362	  -0.06300	  -0.13547	  -0.18855	  -0.21104	  -0.20358	  -0.17731	  -0.14568	  -0.11407	  -0.07229	  -0.00006	   0.11580	   0.26904	   0.43494	   0.58191	   0.68890	   0.75384	   0.78810	   0.80595	   0.81577	   0.81801	   0.80538	   0.76601	   0.69476	   0.59812	   0.48657	   0.36883	   0.25209	   0.14308	   0.04848	  -0.02730	  -0.08237	  -0.11566	  -0.13044	  -0.13575	  -0.14000	  -0.14735	  -0.15973	  -0.17588	  -0.19074	  -0.20035	  -0.20466	  -0.20487	  -0.20139	  -0.19528	  -0.18928	  -0.18616	  -0.18706	  -0.19203	  -0.19887	  -0.20423	  -0.20714	  -0.20744	  -0.20522	  -0.20120	  -0.19476	  -0.18619	  -0.17807	  -0.17270	  -0.17078	  -0.17160	  -0.17458	  -0.17965	  -0.18570	  -0.19010	  -0.18936	  -0.18376	  -0.17944	  -0.17931	  -0.17726	  -0.16916	  -0.16027	  -0.15651	  -0.15977	  -0.16919	  -0.18002	  -0.18643	  -0.18519	  -0.17707	  -0.16760	  -0.16165	  -0.15859	  -0.15612	  -0.15545	  -0.15865	  -0.16366
   0.04099	   0.05174	   0.06205	   0.07111	   0.07939	   0.08565	   0.08925	   0.09198	   0.09452	   0.09490	   0.09130	   0.08448	   0.07607	   0.06731	   0.06014	   0.05458	   0.04717	   0.03505	   0.02004	   0.00679	  -0.00219	  -0.00706	  -0.00832	  -0.00676	  -0.00384	  -0.00120	  -0.00029	  -0.00168	  -0.00496	  -0.00855	  -0.00968	  -0.00750	  -0.00485	  -0.00564	  -0.01061	  -0.01565	  -0.01770	  -0.01661	  -0.01237	  -0.00850	  -0.00841	  -0.01081	  -0.01593	  -0.02478	  -0.03429	  -0.04090	  -0.04245	  -0.03741	  -0.02710	  -0.01571	  -0.00793	  -0.00567	  -0.00718	  -0.01137	  -0.01807	  -0.02537	  -0.03043	  -0.03069	  -0.02611	  -0.01942	  -0.01183	  -0.00319	   0.00514	   0.01291	   0.02222	   0.03574	   0.05604	   0.08259	   0.10804	   0.12203	   0.12111	   0.10852	   0.08441	   0.04641	  -0.00334	  -0.06059	  -0.11799	  -0.16249	  -0.18637	  -0.19255	  -0.18875	  -0.18154	  -0.17032	  -0.14806	  -0.10537	  -0.03016	   0.08552	   0.23419	   0.39397	   0.53875	   0.64907	   0.71896	   0.75498	   0.77179	   0.78364	   0.79562	   0.80273	   0.79375	   0.75825	   0.69490	   0.61163	   0.51783	   0.41889	   0.31634	   0.21118	   0.10906	   0.02007	  -0.04872	  -0.09619	  -0.12517	  -0.14185	  -0.15404	  -0.16540	  -0.17590	  -0.18670	  -0.19749	  -0.20569	  -0.20978	  -0.20977	  -0.20759	  -0.20403	  -0.19807	  -0.19262	  -0.19332	  -0.20129	  -0.21176	  -0.21875	  -0.22099	  -0.22215	  -0.22370	  -0.22322	  -0.21916	  -0.21319	  -0.20729	  -0.20097	  -0.19561	  -0.19397	  -0.19595	  -0.20093	  -0.20732	  -0.21086	  -0.20887	  -0.20336	  -0.19707	  -0.19217	  -0.19029	  -0.18855	  -0.18348	  -0.17793	  -0.17706	  -0.18159	  -0.18852	  -0.19377	  -0.19435	  -0.19034	  -0.18385	  -0.17873	  -0.17782	  -0.17866	  -0.17793
   0.02789	   0.03480	   0.04269	   0.05198	   0.06207	   0.07119	   0.07678	   0.07734	   0.07499	   0.07300	   0.07224	   0.07214	   0.07199	   0.07092	   0.06967	   0.06911	   0.06703	   0.06181	   0.05424	   0.04362	   0.02929	   0.01490	   0.00616	   0.00483	   0.00830	   0.01393	   0.01897	   0.02044	   0.01809	   0.01500	   0.01464	   0.01634	   0.01613	   0.01192	   0.00520	  -0.00083	  -0.00414	  -0.00423	  -0.00144	   0.00283	   0.00653	   0.00722	   0.00421	  -0.00096	  -0.00761	  -0.01537	  -0.02072	  -0.01816	  -0.00761	   0.00372	   0.01002	   0.01176	   0.01117	   0.00920	   0.00646	   0.00356	   0.00050	  -0.00234	  -0.00300	  -0.00013	   0.00616	   0.01480	   0.02247	   0.02686	   0.03073	   0.03807	   0.04990	   0.06672	   0.08816	   0.10832	   0.11862	   0.11362	   0.09099	   0.04995	  -0.00711	  -0.07129	  -0.12784	  -0.16213	  -0.16599	  -0.14121	  -0.09958	  -0.05702	  -0.02350	   0.00533	   0.04949	   0.13118	   0.25567	   0.40587	   0.55366	   0.67447	   0.75435	   0.79520	   0.81195	   0.81758	   0.81722	   0.81048	   0.79112	   0.75141	   0.69082	   0.61537	   0.52769	   0.42437	   0.30572	   0.18043	   0.06082	  -0.03935	  -0.10818	  -0.14299	  -0.15134	  -0.14672	  -0.14294	  -0.14599	  -0.15312	  -0.16021	  -0.16837	  -0.18108	  -0.19556	  -0.20534	  -0.20801	  -0.20608	  -0.20271	  -0.19834	  -0.19335	  -0.18981	  -0.18855	  -0.18987	  -0.19434	  -0.20025	  -0.20405	  -0.20431	  -0.20220	  -0.19777	  -0.19085	  -0.18394	  -0.17829	  -0.17361	  -0.17170	  -0.17358	  -0.17731	  -0.18054	  -0.18383	  -0.18919	  -0.19547	  -0.19856	  -0.19600	  -0.19056	  -0.18658	  -0.18356	  -0.17905	  -0.17492	  -0.17497	  -0.17931	  -0.18567	  -0.19310	  -0.19985	  -0.20262	  -0.20108	  -0.19698	  -0.18970	  -0.18010
   0.00176	   0.00878	   0.01681	   0.02306	   0.02782	   0.03318	   0.03913	   0.04289	   0.04452	   0.04761	   0.05496	   0.06625	   0.07797	   0.08564	   0.08668	   0.08273	   0.07743	   0.07149	   0.06211	   0.04686	   0.02770	   0.00891	  -0.00615	  -0.01494	  -0.01723	  -0.01520	  -0.01119	  -0.00837	  -0.00993	  -0.01481	  -0.01918	  -0.02217	  -0.02539	  -0.02862	  -0.03060	  -0.03138	  -0.03232	  -0.03494	  -0.03736	  -0.03579	  -0.03032	  -0.02534	  -0.02552	  -0.03188	  -0.04122	  -0.04998	  -0.05671	  -0.06081	  -0.06095	  -0.05573	  -0.04616	  -0.03575	  -0.02756	  -0.02222	  -0.02049	  -0.02368	  -0.02885	  -0.03153	  -0.03177	  -0.03068	  -0.02790	  -0.02402	  -0.01995	  -0.01401	  -0.00252	   0.01503	   0.03559	   0.05812	   0.08345	   0.10635	   0.11558	   0.10440	   0.07373	   0.02709	  -0.02983	  -0.08740	  -0.13578	  -0.16804	  -0.18009	  -0.17493	  -0.16194	  -0.14684	  -0.12693	  -0.09036	  -0.01707	   0.10546	   0.26499	   0.43192	   0.57817	   0.68703	   0.75461	   0.78770	   0.80022	   0.80428	   0.80054	   0.78128	   0.73977	   0.67551	   0.59605	   0.51183	   0.42640	   0.33476	   0.23368	   0.12844	   0.02964	  -0.05188	  -0.10980	  -0.14465	  -0.16157	  -0.16688	  -0.16700	  -0.16601	  -0.16476	  -0.16589	  -0.17274	  -0.18431	  -0.19661	  -0.20610	  -0.21160	  -0.21458	  -0.21585	  -0.21461	  -0.21134	  -0.20771	  -0.20468	  -0.20223	  -0.20026	  -0.19882	  -0.19766	  -0.19777	  -0.20024	  -0.20299	  -0.20287	  -0.19940	  -0.19535	  -0.19241	  -0.18867	  -0.18407	  -0.18177	  -0.18337	  -0.18791	  -0.19385	  -0.19978	  -0.20261	  -0.19944	  -0.19196	  -0.18351	  -0.17577	  -0.17042	  -0.16817	  -0.16791	  -0.17022	  -0.17665	  -0.18479	  -0.18985	  -0.18944	  -0.18382	  -0.17573	  -0.16808	  -0.16118
   0.05756	   0.06193	   0.06780	   0.07525	   0.07988	   0.08096	   0.08353	   0.08961	   0.09746	   0.10412	   0.10702	   0.10557	   0.09883	   0.08666	   0.07194	   0.05717	   0.04307	   0.03106	   0.02297	   0.01823	   0.01471	   0.01305	   0.01474	   0.01745	   0.01780	   0.01467	   0.00845	   0.00136	  -0.00256	  -0.00132	   0.00234	   0.00375	   0.00086	  -0.00524	  -0.01179	  -0.01419	  -0.01011	  -0.00415	  -0.00225	  -0.00598	  -0.01255	  -0.01864	  -0.02442	  -0.02979	  -0.03205	  -0.02958	  -0.02276	  -0.01358	  -0.00612	  -0.00317	  -0.00337	  -0.00511	  -0.00915	  -0.01546	  -0.02148	  -0.02421	  -0.02225	  -0.01672	  -0.00954	  -0.00021	   0.01085	   0.01990	   0.02584	   0.03069	   0.03572	   0.04463	   0.06358	   0.09234	   0.12114	   0.13724	   0.13312	   0.11060	   0.07525	   0.02946	  -0.02460	  -0.08055	  -0.13066	  -0.16820	  -0.18648	  -0.18512	  -0.17307	  -0.15859	  -0.14163	  -0.11609	  -0.07519	  -0.01071	   0.08865	   0.22513	   0.38069	   0.52728	   0.64286	   0.71930	   0.76293	   0.78762	   0.80456	   0.81726	   0.82126	   0.80804	   0.77185	   0.71180	   0.63160	   0.53774	   0.43592	   0.33056	   0.22585	   0.12764	   0.04239	  -0.02514	  -0.07237	  -0.10160	  -0.11930	  -0.13121	  -0.14156	  -0.15369	  -0.16773	  -0.18072	  -0.18880	  -0.18975	  -0.18495	  -0.17793	  -0.17235	  -0.17139	  -0.17571	  -0.18223	  -0.18855	  -0.19513	  -0.20132	  -0.20531	  -0.20740	  -0.20727	  -0.20242	  -0.19318	  -0.18414	  -0.17993	  -0.18111	  -0.18467	  -0.18818	  -0.19142	  -0.19432	  -0.19576	  -0.19499	  -0.19163	  -0.18566	  -0.17754	  -0.16802	  -0.15943	  -0.15492	  -0.15588	  -0.16234	  -0.17320	  -0.18370	  -0.18863	  -0.18818	  -0.18538	  -0.18101	  -0.17374	  -0.16437	  -0.15769	  -0.15741	  -0.16215
   0.01922	   0.01189	   0.00651	   0.00412	   0.00502	   0.01161	   0.02552	   0.04374	   0.06073	   0.07277	   0.07983	   0.08318	   0.08278	   0.07756	   0.06636	   0.05062	   0.03484	   0.02368	   0.01882	   0.01865	   0.02110	   0.02243	   0.01850	   0.01138	   0.00513	  -0.00081	  -0.00661	  -0.01139	  -0.01643	  -0.02163	  -0.02418	  -0.02094	  -0.01053	   0.00330	   0.01271	   0.01274	   0.00444	  -0.00778	  -0.01923	  -0.02809	  -0.03400	  -0.03499	  -0.03137	  -0.02589	  -0.02018	  -0.01678	  -0.01745	  -0.02131	  -0.02830	  -0.03713	  -0.04338	  -0.04475	  -0.04276	  -0.03888	  -0.03179	  -0.01991	  -0.00608	   0.00361	   0.00606	   0.00317	  -0.00203	  -0.00644	  -0.00710	  -0.00449	  -0.00055	   0.00722	   0.02352	   0.04868	   0.07794	   0.10414	   0.11974	   0.11869	   0.09797	   0.05757	  -0.00001	  -0.06716	  -0.13006	  -0.17325	  -0.18480	  -0.16097	  -0.11189	  -0.05824	  -0.01660	   0.01026	   0.03570	   0.08443	   0.17491	   0.30475	   0.45188	   0.58775	   0.69308	   0.76372	   0.80543	   0.82535	   0.82891	   0.82023	   0.79842	   0.75723	   0.69354	   0.61315	   0.52422	   0.42853	   0.32277	   0.20772	   0.09327	  -0.00680	  -0.08151	  -0.12615	  -0.14544	  -0.15077	  -0.15191	  -0.15345	  -0.15694	  -0.16222	  -0.16745	  -0.17112	  -0.17376	  -0.17629	  -0.17879	  -0.18213	  -0.18718	  -0.19272	  -0.19745	  -0.20123	  -0.20333	  -0.20298	  -0.20049	  -0.19658	  -0.19228	  -0.18825	  -0.18394	  -0.18075	  -0.18262	  -0.19024	  -0.19960	  -0.20613	  -0.20729	  -0.20379	  -0.19862	  -0.19341	  -0.18770	  -0.18204	  -0.17923	  -0.18164	  -0.18835	  -0.19579	  -0.20157	  -0.20574	  -0.20777	  -0.20657	  -0.20176	  -0.19356	  -0.18359	  -0.17544	  -0.17293	  -0.17683	  -0.18441	  -0.19236	  -0.19878	  -0.20260
   0.02059	   0.02279	   0.02697	   0.03355	   0.04074	   0.04538	   0.04772	   0.05155	   0.05974	   0.07222	   0.08666	   0.09833	   0.10339	   0.10224	   0.09677	   0.08883	   0.07977	   0.06850	   0.05369	   0.03736	   0.02374	   0.01586	   0.01407	   0.01545	   0.01568	   0.01329	   0.00939	   0.00516	   0.00093	  -0.00416	  -0.01009	  -0.01377	  -0.01232	  -0.00858	  -0.00696	  -0.00697	  -0.00735	  -0.00896	  -0.01106	  -0.01137	  -0.01043	  -0.01218	  -0.01895	  -0.02757	  -0.03213	  -0.03121	  -0.02820	  -0.02501	  -0.02075	  -0.01534	  -0.01232	  -0.01468	  -0.01978	  -0.02367	  -0.02626	  -0.02887	  -0.03150	  -0.03301	  -0.03123	  -0.02505	  -0.01645	  -0.00781	  -0.00045	   0.00552	   0.01210	   0.02145	   0.03572	   0.05777	   0.08709	   0.11700	   0.13845	   0.14286	   0.12351	   0.08062	   0.02201	  -0.04261	  -0.10458	  -0.15347	  -0.17890	  -0.17994	  -0.16555	  -0.14462	  -0.11796	  -0.07625	  -0.00384	   0.11270	   0.27092	   0.44474	   0.59837	   0.70917	   0.77492	   0.80642	   0.81826	   0.82137	   0.81653	   0.79473	   0.74685	   0.67185	   0.57454	   0.46197	   0.34286	   0.22463	   0.11265	   0.01275	  -0.06686	  -0.11745	  -0.13875	  -0.14090	  -0.13536	  -0.13012	  -0.13078	  -0.13990	  -0.15465	  -0.16885	  -0.17905	  -0.18526	  -0.18826	  -0.18937	  -0.18947	  -0.18806	  -0.18434	  -0.17822	  -0.17164	  -0.16894	  -0.17223	  -0.17739	  -0.18060	  -0.18393	  -0.18899	  -0.19164	  -0.18810	  -0.18015	  -0.17137	  -0.16438	  -0.16137	  -0.16237	  -0.16508	  -0.16814	  -0.17123	  -0.17305	  -0.17300	  -0.17280	  -0.17279	  -0.17002	  -0.16288	  -0.15413	  -0.14803	  -0.14658	  -0.14947	  -0.15537	  -0.16175	  -0.16632	  -0.16879	  -0.17000	  -0.16912	  -0.16389	  -0.15558	  -0.14852	  -0.14407	  -0.14175
   0.04430	   0.06140	   0.07569	   0.08498	   0.09143	   0.09706	   0.10109	   0.10119	   0.09549	   0.08541	   0.07474	   0.06554	   0.05865	   0.05500	   0.05303	   0.04885	   0.03973	   0.02645	   0.01125	  -0.00345	  -0.01310	  -0.01547	  -0.01519	  -0.01703	  -0.02010	  -0.02155	  -0.01906	  -0.01164	  -0.00258	   0.00270	   0.00229	  -0.00251	  -0.01080	  -0.02043	  -0.02690	  -0.02765	  -0.02326	  -0.01631	  -0.01090	  -0.00953	  -0.01092	  -0.01403	  -0.02010	  -0.02796	  -0.03439	  -0.03770	  -0.03615	  -0.02878	  -0.01956	  -0.01372	  -0.01103	  -0.00893	  -0.00782	  -0.00954	  -0.01381	  -0.01833	  -0.02092	  -0.02049	  -0.01799	  -0.01474	  -0.00917	   0.00057	   0.01268	   0.02511	   0.04023	   0.06229	   0.09059	   0.11778	   0.13417	   0.13342	   0.11723	   0.09163	   0.05741	   0.01179	  -0.04237	  -0.09607	  -0.14038	  -0.17012	  -0.18400	  -0.18394	  -0.17398	  -0.15876	  -0.14095	  -0.11374	  -0.05728	   0.04469	   0.18726	   0.34947	   0.50603	   0.63356	   0.71901	   0.76483	   0.78416	   0.79311	   0.80212	   0.80927	   0.80425	   0.77628	   0.71938	   0.63884	   0.54704	   0.45017	   0.34760	   0.23992	   0.13289	   0.03666	  -0.03914	  -0.08915	  -0.11446	  -0.12411	  -0.12888	  -0.13572	  -0.14719	  -0.16072	  -0.17266	  -0.18319	  -0.19309	  -0.20137	  -0.20633	  -0.20576	  -0.19971	  -0.19252	  -0.19002	  -0.19497	  -0.20359	  -0.20997	  -0.21336	  -0.21616	  -0.21860	  -0.21818	  -0.21292	  -0.20527	  -0.19943	  -0.19503	  -0.19010	  -0.18654	  -0.18573	  -0.18706	  -0.19082	  -0.19691	  -0.20336	  -0.20649	  -0.20325	  -0.19492	  -0.18599	  -0.17917	  -0.17424	  -0.17113	  -0.17174	  -0.17883	  -0.19016	  -0.19803	  -0.20003	  -0.20101	  -0.20182	  -0.19774	  -0.18765	  -0.17560	  -0.16599	  -0.16275
   0.01750	   0.01262	   0.01330	   0.01962	   0.02972	   0.04288	   0.05792	   0.07044	   0.07868	   0.08439	   0.08542	   0.07917	   0.06868	   0.05823	   0.05055	   0.04764	   0.04777	   0.04739	   0.04684	   0.04642	   0.04336	   0.03485	   0.01893	  -0.00177	  -0.01847	  -0.02538	  -0.02529	  -0.02307	  -0.01904	  -0.01158	  -0.00169	   0.00898	   0.01861	   0.02291	   0.01798	   0.00495	  -0.00973	  -0.01902	  -0.02069	  -0.01706	  -0.01156	  -0.00627	  -0.00143	   0.00169	   0.00021	  -0.00694	  -0.01702	  -0.02610	  -0.03144	  -0.03090	  -0.02453	  -0.01560	  -0.00799	  -0.00322	   0.00012	   0.00355	   0.00571	   0.00483	   0.00208	  -0.00239	  -0.00833	  -0.01142	  -0.00915	  -0.00290	   0.00777	   0.02462	   0.04738	   0.07468	   0.10339	   0.12676	   0.13661	   0.12648	   0.09563	   0.04924	  -0.00624	  -0.06506	  -0.11983	  -0.15918	  -0.17062	  -0.14967	  -0.10559	  -0.05601	  -0.01723	   0.00751	   0.03566	   0.09459	   0.20032	   0.34475	   0.49946	   0.63387	   0.73048	   0.78780	   0.81636	   0.82938	   0.83409	   0.82976	   0.80916	   0.76570	   0.70174	   0.62596	   0.54447	   0.45657	   0.35867	   0.25128	   0.14014	   0.03424	  -0.05507	  -0.11879	  -0.15592	  -0.17260	  -0.17803	  -0.18033	  -0.18302	  -0.18446	  -0.18224	  -0.17848	  -0.17809	  -0.18397	  -0.19468	  -0.20508	  -0.21137	  -0.21305	  -0.21167	  -0.21019	  -0.20898	  -0.20557	  -0.20017	  -0.19608	  -0.19672	  -0.20251	  -0.20873	  -0.21153	  -0.21317	  -0.21507	  -0.21375	  -0.20652	  -0.19552	  -0.18594	  -0.18094	  -0.18043	  -0.18363	  -0.19011	  -0.19991	  -0.21131	  -0.21942	  -0.22023	  -0.21479	  -0.20661	  -0.19775	  -0.18988	  -0.18528	  -0.18514	  -0.18811	  -0.19244	  -0.19763	  -0.20219	  -0.20449	  -0.20626	  -0.20906	  -0.21008
   0.03469	   0.03975	   0.04439	   0.04929	   0.05335	   0.05477	   0.05477	   0.05734	   0.06481	   0.07404	   0.07950	   0.07791	   0.07127	   0.06569	   0.06307	   0.05904	   0.04987	   0.03660	   0.02329	   0.01313	   0.00697	   0.00413	   0.00348	   0.00438	   0.00586	   0.00564	   0.00330	   0.00029	  -0.00292	  -0.00612	  -0.00831	  -0.00921	  -0.01131	  -0.01553	  -0.01748	  -0.01452	  -0.00934	  -0.00497	  -0.00378	  -0.00747	  -0.01565	  -0.02622	  -0.03505	  -0.03805	  -0.03602	  -0.03298	  -0.03068	  -0.02853	  -0.02538	  -0.02002	  -0.01316	  -0.00830	  -0.00886	  -0.01523	  -0.02359	  -0.02817	  -0.02789	  -0.02686	  -0.02696	  -0.02459	  -0.01600	  -0.00361	   0.00613	   0.01137	   0.01602	   0.02461	   0.04024	   0.06364	   0.09129	   0.11464	   0.12319	   0.11120	   0.07911	   0.02917	  -0.03437	  -0.10132	  -0.15837	  -0.19633	  -0.21250	  -0.20746	  -0.18508	  -0.15578	  -0.12791	  -0.09412	  -0.03514	   0.06355	   0.19957	   0.35506	   0.50484	   0.62469	   0.70327	   0.74763	   0.77366	   0.79343	   0.81050	   0.82141	   0.81831	   0.79051	   0.73049	   0.64323	   0.54210	   0.43643	   0.33087	   0.22904	   0.13365	   0.04723	  -0.02684	  -0.08502	  -0.12694	  -0.15506	  -0.17109	  -0.17810	  -0.18251	  -0.19084	  -0.20468	  -0.21833	  -0.22700	  -0.23206	  -0.23333	  -0.22842	  -0.21872	  -0.20829	  -0.20220	  -0.20432	  -0.21301	  -0.22303	  -0.23033	  -0.23421	  -0.23584	  -0.23478	  -0.22985	  -0.22221	  -0.21461	  -0.20857	  -0.20409	  -0.20148	  -0.20152	  -0.20382	  -0.20723	  -0.21034	  -0.21144	  -0.21024	  -0.20702	  -0.20141	  -0.19351	  -0.18557	  -0.18217	  -0.18423	  -0.18731	  -0.18959	  -0.19228	  -0.19500	  -0.19736	  -0.19937	  -0.19873	  -0.19346	  -0.18558	  -0.17888	  -0.17536	  -0.17426
   0.03880	   0.04504	   0.05431	   0.06694	   0.08045	   0.09303	   0.10381	   0.10964	   0.10685	   0.09623	   0.08230	   0.06862	   0.05638	   0.04609	   0.03788	   0.03235	   0.03002	   0.02916	   0.02688	   0.02211	   0.01626	   0.01010	   0.00279	  -0.00581	  -0.01432	  -0.01954	  -0.01858	  -0.01167	  -0.00168	   0.00745	   0.01230	   0.01131	   0.00548	  -0.00232	  -0.01041	  -0.01838	  -0.02433	  -0.02587	  -0.02396	  -0.02173	  -0.01916	  -0.01425	  -0.00913	  -0.00926	  -0.01530	  -0.02141	  -0.02371	  -0.02412	  -0.02558	  -0.02873	  -0.03048	  -0.02529	  -0.01190	   0.00322	   0.01208	   0.01277	   0.00814	   0.00092	  -0.00682	  -0.01249	  -0.01390	  -0.01116	  -0.00451	   0.00829	   0.02948	   0.05827	   0.09023	   0.11924	   0.13878	   0.14254	   0.12869	   0.10105	   0.06326	   0.01679	  -0.03449	  -0.08475	  -0.12699	  -0.15311	  -0.16074	  -0.15517	  -0.14434	  -0.13519	  -0.12781	  -0.10970	  -0.06107	   0.03187	   0.16876	   0.33409	   0.50179	   0.64426	   0.74354	   0.79687	   0.81450	   0.81420	   0.80958	   0.79987	   0.77425	   0.72586	   0.65886	   0.58128	   0.49686	   0.40476	   0.30319	   0.19456	   0.08819	  -0.00322	  -0.07103	  -0.11356	  -0.13399	  -0.13941	  -0.13855	  -0.13864	  -0.14387	  -0.15312	  -0.16078	  -0.16406	  -0.16632	  -0.17150	  -0.18022	  -0.19047	  -0.19876	  -0.20176	  -0.19838	  -0.19078	  -0.18167	  -0.17297	  -0.16733	  -0.16588	  -0.16767	  -0.17266	  -0.18050	  -0.18951	  -0.19635	  -0.19626	  -0.18864	  -0.17853	  -0.16974	  -0.16296	  -0.15899	  -0.15895	  -0.16314	  -0.17004	  -0.17649	  -0.17974	  -0.17947	  -0.17884	  -0.17928	  -0.17742	  -0.17236	  -0.16758	  -0.16502	  -0.16539	  -0.17075	  -0.17973	  -0.18577	  -0.18700	  -0.18877	  -0.19230	  -0.19258	  -0.18747
   0.02942	   0.02824	   0.02578	   0.02306	   0.02127	   0.02136	   0.02456	   0.03226	   0.04421	   0.05880	   0.07508	   0.08988	   0.09645	   0.09008	   0.07242	   0.05126	   0.03556	   0.02862	   0.02729	   0.02750	   0.02841	   0.03003	   0.02987	   0.02545	   0.01744	   0.00862	   0.00074	  -0.00796	  -0.02019	  -0.03361	  -0.04013	  -0.03362	  -0.01683	   0.00166	   0.01482	   0.01875	   0.01229	  -0.00062	  -0.01364	  -0.02368	  -0.02981	  -0.03135	  -0.02944	  -0.02522	  -0.01999	  -0.01702	  -0.01565	  -0.01223	  -0.00772	  -0.00481	  -0.00422	  -0.00670	  -0.01221	  -0.01812	  -0.02104	  -0.01894	  -0.01159	  -0.00151	   0.00735	   0.01296	   0.01452	   0.01170	   0.00762	   0.00667	   0.01091	   0.02287	   0.04546	   0.07733	   0.11222	   0.14074	   0.15265	   0.14019	   0.10038	   0.03809	  -0.03395	  -0.10148	  -0.15230	  -0.17542	  -0.16418	  -0.12281	  -0.06783	  -0.01845	   0.01693	   0.04657	   0.09084	   0.16859	   0.28271	   0.41777	   0.55016	   0.65853	   0.73263	   0.77686	   0.80255	   0.82033	   0.83471	   0.83945	   0.82336	   0.78207	   0.72060	   0.64626	   0.56321	   0.47147	   0.36953	   0.25924	   0.14717	   0.04343	  -0.04053	  -0.09805	  -0.13070	  -0.14602	  -0.15296	  -0.15885	  -0.16764	  -0.17730	  -0.18339	  -0.18544	  -0.18511	  -0.18287	  -0.18068	  -0.18380	  -0.19430	  -0.20593	  -0.21199	  -0.21238	  -0.21033	  -0.20959	  -0.21217	  -0.21534	  -0.21474	  -0.20891	  -0.19908	  -0.18839	  -0.18219	  -0.18452	  -0.19362	  -0.20219	  -0.20492	  -0.20423	  -0.20296	  -0.19969	  -0.19413	  -0.18814	  -0.18288	  -0.17963	  -0.18038	  -0.18325	  -0.18322	  -0.18079	  -0.18141	  -0.18639	  -0.19068	  -0.18950	  -0.18423	  -0.17937	  -0.17646	  -0.17445	  -0.17347	  -0.17473	  -0.17827	  -0.18246
   0.00298	   0.00610	   0.01438	   0.02542	   0.03452	   0.03872	   0.03861	   0.03636	   0.03436	   0.03527	   0.04145	   0.05193	   0.06342	   0.07507	   0.08539	   0.09059	   0.08905	   0.08071	   0.06548	   0.04599	   0.02805	   0.01601	   0.00938	   0.00476	   0.00147	   0.00174	   0.00426	   0.00482	   0.00190	  -0.00266	  -0.00632	  -0.00849	  -0.01021	  -0.01195	  -0.01315	  -0.01347	  -0.01354	  -0.01446	  -0.01499	  -0.01243	  -0.00876	  -0.00928	  -0.01509	  -0.02281	  -0.02996	  -0.03657	  -0.04128	  -0.04151	  -0.03752	  -0.03095	  -0.02266	  -0.01415	  -0.00778	  -0.00538	  -0.00650	  -0.00895	  -0.01163	  -0.01477	  -0.01738	  -0.01765	  -0.01505	  -0.00946	  -0.00055	   0.00974	   0.01903	   0.02901	   0.04344	   0.06404	   0.08854	   0.10878	   0.11555	   0.10492	   0.07645	   0.03184	  -0.02480	  -0.08602	  -0.13959	  -0.17384	  -0.18525	  -0.17830	  -0.16112	  -0.14181	  -0.12272	  -0.09602	  -0.04613	   0.04261	   0.17524	   0.33747	   0.49826	   0.62732	   0.71406	   0.76607	   0.79428	   0.80734	   0.81165	   0.80740	   0.78735	   0.74238	   0.66968	   0.57573	   0.47110	   0.36364	   0.25578	   0.14960	   0.05184	  -0.02948	  -0.08948	  -0.12824	  -0.15046	  -0.16160	  -0.16548	  -0.16575	  -0.16586	  -0.16807	  -0.17389	  -0.18406	  -0.19744	  -0.21162	  -0.22316	  -0.22689	  -0.22056	  -0.20974	  -0.20282	  -0.20190	  -0.20279	  -0.20261	  -0.20349	  -0.20776	  -0.21453	  -0.22116	  -0.22523	  -0.22554	  -0.22056	  -0.21050	  -0.20017	  -0.19393	  -0.19163	  -0.19135	  -0.19304	  -0.19648	  -0.19876	  -0.19844	  -0.19834	  -0.20076	  -0.20208	  -0.19675	  -0.18657	  -0.17864	  -0.17604	  -0.17676	  -0.17970	  -0.18555	  -0.19293	  -0.19836	  -0.19906	  -0.19521	  -0.19047	  -0.18703	  -0.18335	  -0.17796
   0.03501	   0.03499	   0.03941	   0.05104	   0.06845	   0.08571	   0.10035	   0.11366	   0.12113	   0.11521	   0.09836	   0.08014	   0.06540	   0.05313	   0.04214	   0.03483	   0.03445	   0.03876	   0.04143	   0.03827	   0.02940	   0.01798	   0.00721	  -0.00132	  -0.00640	  -0.00837	  -0.00972	  -0.01097	  -0.00931	  -0.00203	   0.00990	   0.02106	   0.02581	   0.02212	   0.01144	  -0.00230	  -0.01384	  -0.01927	  -0.01911	  -0.01654	  -0.01365	  -0.01034	  -0.00564	  -0.00078	   0.00060	  -0.00354	  -0.01094	  -0.01734	  -0.02044	  -0.02002	  -0.01612	  -0.00870	   0.00134	   0.01153	   0.01905	   0.02129	   0.01778	   0.01120	   0.00451	   0.00050	   0.00137	   0.00601	   0.01170	   0.01917	   0.03342	   0.05852	   0.09232	   0.12739	   0.15507	   0.16769	   0.16002	   0.13073	   0.08439	   0.02861	  -0.03067	  -0.08759	  -0.13411	  -0.16186	  -0.16821	  -0.15953	  -0.14653	  -0.13688	  -0.12768	  -0.10595	  -0.05573	   0.03810	   0.17935	   0.34886	   0.51400	   0.64882	   0.74264	   0.79806	   0.82608	   0.83870	   0.84215	   0.83483	   0.81044	   0.76400	   0.69626	   0.61321	   0.52075	   0.42128	   0.31564	   0.20704	   0.10283	   0.01109	  -0.06186	  -0.11182	  -0.13992	  -0.15266	  -0.15634	  -0.15529	  -0.15394	  -0.15535	  -0.16001	  -0.16707	  -0.17415	  -0.17950	  -0.18556	  -0.19512	  -0.20552	  -0.21183	  -0.21180	  -0.20496	  -0.19421	  -0.18586	  -0.18241	  -0.18251	  -0.18565	  -0.19044	  -0.19507	  -0.19918	  -0.20237	  -0.20336	  -0.20047	  -0.19441	  -0.18858	  -0.18290	  -0.17536	  -0.17007	  -0.17155	  -0.17743	  -0.18380	  -0.18903	  -0.19330	  -0.19636	  -0.19489	  -0.18775	  -0.17956	  -0.17418	  -0.17095	  -0.16867	  -0.16951	  -0.17647	  -0.18757	  -0.19683	  -0.20056	  -0.19947	  -0.19641	  -0.19245
   0.01617	   0.01215	   0.01129	   0.01345	   0.01808	   0.02490	   0.03390	   0.04425	   0.05475	   0.06571	   0.07580	   0.08064	   0.07808	   0.07195	   0.06807	   0.06768	   0.06803	   0.06667	   0.06329	   0.05873	   0.05407	   0.04982	   0.04468	   0.03658	   0.02470	   0.01211	   0.00431	   0.00278	   0.00447	   0.00612	   0.00618	   0.00476	   0.00441	   0.00830	   0.01517	   0.02031	   0.02118	   0.01768	   0.01038	   0.00221	  -0.00249	  -0.00181	   0.00291	   0.00810	   0.00972	   0.00614	  -0.00061	  -0.00649	  -0.00921	  -0.00940	  -0.00732	  -0.00169	   0.00691	   0.01553	   0.02337	   0.03006	   0.03260	   0.02916	   0.02163	   0.01357	   0.00711	   0.00340	   0.00420	   0.00950	   0.01771	   0.02997	   0.04889	   0.07487	   0.10620	   0.13712	   0.15594	   0.15143	   0.12040	   0.06687	  -0.00126	  -0.07330	  -0.13546	  -0.17238	  -0.17377	  -0.14030	  -0.08605	  -0.03400	   0.00077	   0.02515	   0.06507	   0.14586	   0.27194	   0.42452	   0.57370	   0.69600	   0.78217	   0.83158	   0.85085	   0.85172	   0.84019	   0.81230	   0.76270	   0.69316	   0.61013	   0.51933	   0.42280	   0.31929	   0.20960	   0.09956	   0.00021	  -0.07552	  -0.12177	  -0.14415	  -0.15414	  -0.16062	  -0.16799	  -0.17749	  -0.18744	  -0.19594	  -0.20168	  -0.20399	  -0.20348	  -0.20036	  -0.19695	  -0.19825	  -0.20556	  -0.21426	  -0.21902	  -0.21880	  -0.21618	  -0.21250	  -0.20616	  -0.19703	  -0.18950	  -0.18870	  -0.19412	  -0.19987	  -0.20264	  -0.20515	  -0.20917	  -0.21097	  -0.20656	  -0.19730	  -0.18866	  -0.18413	  -0.18240	  -0.18200	  -0.18355	  -0.18712	  -0.19193	  -0.19722	  -0.20178	  -0.20293	  -0.19747	  -0.18598	  -0.17349	  -0.16450	  -0.16174	  -0.16631	  -0.17561	  -0.18517	  -0.19163	  -0.19446	  -0.19618	  -0.19859
   0.04750	   0.05856	   0.07007	   0.07913	   0.08521	   0.08954	   0.09327	   0.09554	   0.09494	   0.09111	   0.08443	   0.07788	   0.07344	   0.06884	   0.06226	   0.05319	   0.04105	   0.02759	   0.01638	   0.00944	   0.00651	   0.00617	   0.00772	   0.01124	   0.01457	   0.01393	   0.00880	   0.00325	   0.00110	   0.00234	   0.00389	   0.00159	  -0.00517	  -0.01172	  -0.01394	  -0.01190	  -0.00609	   0.00258	   0.00810	   0.00427	  -0.00742	  -0.02021	  -0.02944	  -0.03315	  -0.03052	  -0.02338	  -0.01347	  -0.00166	   0.00700	   0.00732	   0.00192	  -0.00382	  -0.00833	  -0.01201	  -0.01625	  -0.02104	  -0.02181	  -0.01594	  -0.00762	  -0.00078	   0.00446	   0.00737	   0.00846	   0.01239	   0.02301	   0.04065	   0.06510	   0.09379	   0.11873	   0.13085	   0.12462	   0.09959	   0.05902	   0.00585	  -0.05512	  -0.11400	  -0.15958	  -0.18578	  -0.19362	  -0.18720	  -0.17158	  -0.15135	  -0.12376	  -0.07626	   0.00511	   0.12562	   0.27692	   0.43717	   0.57833	   0.68055	   0.74303	   0.77896	   0.80126	   0.81724	   0.82795	   0.82591	   0.80006	   0.74442	   0.66158	   0.56041	   0.45124	   0.34147	   0.23350	   0.12895	   0.03469	  -0.04022	  -0.09230	  -0.12289	  -0.13583	  -0.13912	  -0.14230	  -0.15063	  -0.16385	  -0.17833	  -0.19004	  -0.19716	  -0.20026	  -0.20057	  -0.19812	  -0.19202	  -0.18405	  -0.17928	  -0.18056	  -0.18559	  -0.19134	  -0.19678	  -0.20093	  -0.20309	  -0.20400	  -0.20346	  -0.19983	  -0.19268	  -0.18382	  -0.17728	  -0.17680	  -0.18251	  -0.19151	  -0.19906	  -0.20168	  -0.20099	  -0.20045	  -0.19925	  -0.19383	  -0.18320	  -0.17061	  -0.16132	  -0.15871	  -0.16200	  -0.16807	  -0.17432	  -0.17877	  -0.18129	  -0.18236	  -0.17917	  -0.17126	  -0.16335	  -0.15843	  -0.15718	  -0.15963	  -0.16286
   0.00861	   0.00594	   0.00666	   0.01081	   0.01807	   0.02756	   0.03831	   0.05046	   0.06337	   0.07402	   0.07926	   0.07842	   0.07241	   0.06222	   0.04949	   0.03723	   0.02876	   0.02474	   0.02196	   0.01759	   0.01271	   0.00876	   0.00306	  -0.00740	  -0.01970	  -0.02887	  -0.03500	  -0.04140	  -0.04820	  -0.05107	  -0.04741	  -0.03882	  -0.02832	  -0.02010	  -0.01821	  -0.02342	  -0.03297	  -0.04284	  -0.04991	  -0.05229	  -0.04989	  -0.04469	  -0.03973	  -0.03618	  -0.03263	  -0.02925	  -0.02904	  -0.03399	  -0.04113	  -0.04483	  -0.04318	  -0.03828	  -0.03273	  -0.02791	  -0.02357	  -0.01953	  -0.01531	  -0.00989	  -0.00692	  -0.01144	  -0.02129	  -0.02993	  -0.03186	  -0.02479	  -0.01003	   0.01095	   0.03770	   0.06888	   0.10104	   0.12659	   0.13443	   0.11771	   0.07914	   0.02559	  -0.03625	  -0.09794	  -0.15036	  -0.18679	  -0.20309	  -0.19959	  -0.18354	  -0.16578	  -0.15205	  -0.13352	  -0.08947	  -0.00207	   0.13349	   0.30416	   0.47976	   0.62787	   0.73070	   0.78931	   0.81734	   0.82922	   0.83086	   0.82051	   0.79310	   0.74427	   0.67559	   0.59389	   0.50453	   0.40833	   0.30594	   0.20222	   0.10412	   0.01744	  -0.05363	  -0.10656	  -0.14152	  -0.16138	  -0.16998	  -0.17197	  -0.17246	  -0.17479	  -0.17934	  -0.18474	  -0.19014	  -0.19396	  -0.19503	  -0.19686	  -0.20302	  -0.21194	  -0.21882	  -0.21997	  -0.21611	  -0.20990	  -0.20284	  -0.19646	  -0.19291	  -0.19193	  -0.19220	  -0.19463	  -0.19930	  -0.20497	  -0.21077	  -0.21316	  -0.20817	  -0.19775	  -0.18765	  -0.18157	  -0.17993	  -0.18151	  -0.18497	  -0.18817	  -0.19034	  -0.19369	  -0.19748	  -0.19740	  -0.19217	  -0.18366	  -0.17431	  -0.16685	  -0.16327	  -0.16417	  -0.16826	  -0.17320	  -0.17751	  -0.18039	  -0.18230	  -0.18464
   0.03239	   0.03418	   0.03875	   0.04881	   0.06236	   0.07532	   0.08363	   0.08556	   0.08458	   0.08524	   0.08820	   0.09177	   0.09409	   0.09381	   0.09023	   0.08393	   0.07732	   0.07199	   0.06661	   0.05916	   0.04963	   0.03905	   0.02979	   0.02509	   0.02492	   0.02598	   0.02543	   0.02279	   0.01889	   0.01581	   0.01623	   0.01913	   0.02150	   0.02226	   0.01983	   0.01334	   0.00591	   0.00154	   0.00186	   0.00701	   0.01410	   0.01752	   0.01582	   0.01151	   0.00543	  -0.00196	  -0.00793	  -0.01032	  -0.00894	  -0.00368	   0.00444	   0.01275	   0.02024	   0.02768	   0.03489	   0.04049	   0.04304	   0.04165	   0.03773	   0.03495	   0.03590	   0.04172	   0.05264	   0.06660	   0.08059	   0.09358	   0.10608	   0.11922	   0.13365	   0.14658	   0.15192	   0.14522	   0.12458	   0.08745	   0.03398	  -0.02862	  -0.08858	  -0.13250	  -0.14794	  -0.13034	  -0.08855	  -0.03964	   0.00204	   0.03196	   0.06051	   0.11082	   0.20230	   0.33251	   0.47709	   0.60663	   0.70241	   0.76111	   0.79077	   0.80406	   0.81334	   0.82379	   0.82859	   0.81604	   0.78105	   0.72688	   0.65954	   0.58374	   0.49975	   0.40264	   0.28873	   0.16286	   0.03927	  -0.06363	  -0.13283	  -0.16714	  -0.17508	  -0.17040	  -0.16644	  -0.16962	  -0.17916	  -0.19192	  -0.20599	  -0.22030	  -0.23241	  -0.23914	  -0.23908	  -0.23312	  -0.22395	  -0.21476	  -0.20781	  -0.20461	  -0.20564	  -0.21068	  -0.21935	  -0.22863	  -0.23420	  -0.23428	  -0.22873	  -0.21902	  -0.20930	  -0.20271	  -0.19847	  -0.19530	  -0.19467	  -0.19925	  -0.20808	  -0.21567	  -0.21911	  -0.22028	  -0.22029	  -0.21814	  -0.21434	  -0.20980	  -0.20340	  -0.19707	  -0.19593	  -0.20052	  -0.20727	  -0.21356	  -0.21650	  -0.21383	  -0.20857	  -0.20565	  -0.20560	  -0.20510
   0.03001	   0.02769	   0.02651	   0.02752	   0.03287	   0.04402	   0.05778	   0.07038	   0.08084	   0.08853	   0.09364	   0.09539	   0.09070	   0.07960	   0.06515	   0.04907	   0.03502	   0.02832	   0.02935	   0.03314	   0.03396	   0.02924	   0.02027	   0.00956	  -0.00148	  -0.01187	  -0.01966	  -0.02432	  -0.02706	  -0.02694	  -0.02203	  -0.01240	  -0.00047	   0.00884	   0.01031	   0.00249	  -0.01121	  -0.02466	  -0.03372	  -0.03798	  -0.03728	  -0.03283	  -0.02844	  -0.02517	  -0.02101	  -0.01600	  -0.01397	  -0.01902	  -0.02904	  -0.03748	  -0.04153	  -0.04117	  -0.03644	  -0.02992	  -0.02444	  -0.01995	  -0.01536	  -0.01117	  -0.00976	  -0.01239	  -0.01795	  -0.02454	  -0.02893	  -0.02647	  -0.01438	   0.00784	   0.04013	   0.07952	   0.11750	   0.14225	   0.14364	   0.11710	   0.06685	   0.00382	  -0.06240	  -0.12431	  -0.17255	  -0.19901	  -0.20160	  -0.18508	  -0.15928	  -0.13391	  -0.11100	  -0.08095	  -0.02780	   0.06224	   0.19206	   0.34648	   0.49873	   0.62644	   0.71964	   0.77915	   0.81325	   0.83115	   0.83683	   0.82977	   0.80385	   0.75030	   0.67030	   0.57693	   0.48169	   0.38696	   0.29160	   0.19658	   0.10531	   0.02227	  -0.04857	  -0.10449	  -0.14448	  -0.17046	  -0.18593	  -0.19347	  -0.19538	  -0.19531	  -0.19636	  -0.19842	  -0.20055	  -0.20255	  -0.20353	  -0.20421	  -0.20673	  -0.21105	  -0.21566	  -0.21807	  -0.21551	  -0.20915	  -0.20337	  -0.19990	  -0.19761	  -0.19644	  -0.19715	  -0.19885	  -0.19922	  -0.19855	  -0.19962	  -0.20157	  -0.19946	  -0.19151	  -0.18231	  -0.17651	  -0.17352	  -0.17178	  -0.17309	  -0.17880	  -0.18612	  -0.19111	  -0.19238	  -0.19029	  -0.18501	  -0.17791	  -0.17122	  -0.16508	  -0.15907	  -0.15452	  -0.15296	  -0.15503	  -0.16056	  -0.16758	  -0.17310	  -0.17533
   0.04927	   0.04898	   0.04654	   0.04587	   0.04765	   0.05114	   0.05689	   0.06561	   0.07786	   0.09350	   0.10959	   0.12029	   0.12076	   0.11136	   0.09535	   0.07588	   0.05756	   0.04467	   0.03733	   0.03429	   0.03400	   0.03323	   0.02959	   0.02314	   0.01660	   0.01229	   0.00743	  -0.00206	  -0.01540	  -0.02719	  -0.03062	  -0.02285	  -0.00899	   0.00184	   0.00448	   0.00032	  -0.00656	  -0.01323	  -0.01909	  -0.02485	  -0.03091	  -0.03749	  -0.04339	  -0.04518	  -0.04028	  -0.02939	  -0.01750	  -0.01225	  -0.01621	  -0.02417	  -0.03030	  -0.03327	  -0.03463	  -0.03608	  -0.03790	  -0.03794	  -0.03292	  -0.02349	  -0.01514	  -0.01089	  -0.00860	  -0.00721	  -0.00818	  -0.00987	  -0.00658	   0.00606	   0.02906	   0.06102	   0.09603	   0.12266	   0.13008	   0.11401	   0.07466	   0.01567	  -0.05326	  -0.11974	  -0.17517	  -0.21468	  -0.23457	  -0.23431	  -0.21764	  -0.18958	  -0.15061	  -0.09188	   0.00101	   0.13586	   0.30239	   0.47226	   0.61448	   0.71313	   0.77106	   0.79985	   0.81202	   0.81709	   0.81519	   0.79725	   0.75432	   0.68484	   0.59396	   0.48874	   0.37451	   0.25546	   0.13901	   0.03605	  -0.04524	  -0.10178	  -0.13408	  -0.14847	  -0.15498	  -0.16105	  -0.17054	  -0.18486	  -0.20169	  -0.21613	  -0.22529	  -0.22746	  -0.22189	  -0.21332	  -0.20786	  -0.20669	  -0.20785	  -0.21001	  -0.21377	  -0.22026	  -0.22915	  -0.23694	  -0.23873	  -0.23432	  -0.22793	  -0.22140	  -0.21432	  -0.20883	  -0.20833	  -0.21295	  -0.21940	  -0.22416	  -0.22640	  -0.22733	  -0.22672	  -0.22319	  -0.21607	  -0.20610	  -0.19679	  -0.19168	  -0.19059	  -0.19164	  -0.19410	  -0.19831	  -0.20454	  -0.21176	  -0.21763	  -0.21957	  -0.21636	  -0.20909	  -0.20050	  -0.19346	  -0.18988	  -0.19080	  -0.19609	  -0.20362
   0.00344	   0.00756	   0.01670	   0.02564	   0.03145	   0.03423	   0.03522	   0.03496	   0.03358	   0.03167	   0.03039	   0.03244	   0.04040	   0.05339	   0.06679	   0.07659	   0.08186	   0.08076	   0.07231	   0.06066	   0.04993	   0.04065	   0.03258	   0.02689	   0.02489	   0.02520	   0.02525	   0.02405	   0.02177	   0.01915	   0.01609	   0.01053	   0.00311	  -0.00148	  -0.00124	   0.00217	   0.00764	   0.01374	   0.01702	   0.01552	   0.01141	   0.00794	   0.00550	   0.00217	  -0.00315	  -0.00973	  -0.01671	  -0.02287	  -0.02526	  -0.02262	  -0.01817	  -0.01361	  -0.00637	   0.00323	   0.01035	   0.01139	   0.00636	  -0.00216	  -0.00954	  -0.01246	  -0.01115	  -0.00604	   0.00228	   0.01157	   0.02086	   0.03204	   0.04601	   0.06143	   0.07859	   0.09640	   0.10726	   0.10323	   0.08112	   0.03865	  -0.02235	  -0.09083	  -0.14947	  -0.17970	  -0.17143	  -0.13175	  -0.07983	  -0.03513	  -0.00659	   0.01406	   0.04996	   0.12545	   0.24705	   0.39607	   0.54138	   0.65596	   0.72696	   0.76164	   0.77917	   0.79266	   0.80315	   0.80639	   0.79789	   0.77252	   0.72765	   0.66750	   0.59882	   0.52364	   0.43767	   0.33511	   0.21764	   0.09713	  -0.01145	  -0.09668	  -0.15300	  -0.18124	  -0.18795	  -0.18295	  -0.17620	  -0.17515	  -0.18252	  -0.19602	  -0.21009	  -0.22063	  -0.22829	  -0.23363	  -0.23610	  -0.23615	  -0.23278	  -0.22627	  -0.22037	  -0.21689	  -0.21570	  -0.21756	  -0.22129	  -0.22460	  -0.22640	  -0.22619	  -0.22582	  -0.22628	  -0.22365	  -0.21471	  -0.20255	  -0.19292	  -0.18888	  -0.19005	  -0.19416	  -0.19959	  -0.20569	  -0.21098	  -0.21299	  -0.21045	  -0.20502	  -0.19882	  -0.19155	  -0.18405	  -0.18069	  -0.18294	  -0.18690	  -0.18964	  -0.19138	  -0.19270	  -0.19219	  -0.18844	  -0.18323	  -0.17770
   0.03895	   0.04585	   0.05627	   0.06865	   0.08118	   0.09421	   0.10774	   0.11604	   0.11172	   0.09488	   0.07410	   0.05784	   0.04706	   0.03862	   0.03229	   0.03012	   0.03194	   0.03510	   0.03608	   0.03207	   0.02373	   0.01521	   0.00858	   0.00160	  -0.00678	  -0.01416	  -0.01753	  -0.01490	  -0.00651	   0.00493	   0.01588	   0.02134	   0.01640	   0.00364	  -0.00923	  -0.01987	  -0.02904	  -0.03427	  -0.03342	  -0.02820	  -0.02193	  -0.01533	  -0.00831	  -0.00414	  -0.00456	  -0.00614	  -0.00709	  -0.01034	  -0.01694	  -0.02374	  -0.02708	  -0.02508	  -0.01935	  -0.01184	  -0.00368	   0.00254	   0.00632	   0.00859	   0.00715	   0.00181	  -0.00214	  -0.00093	   0.00403	   0.01129	   0.02313	   0.04370	   0.07451	   0.11128	   0.14565	   0.16810	   0.17017	   0.14822	   0.10532	   0.04903	  -0.01229	  -0.07111	  -0.12017	  -0.15225	  -0.16360	  -0.15738	  -0.14131	  -0.12295	  -0.10292	  -0.06922	  -0.00354	   0.10543	   0.25507	   0.42659	   0.58956	   0.71744	   0.80055	   0.84467	   0.86166	   0.86261	   0.85239	   0.82687	   0.77925	   0.70861	   0.61995	   0.52065	   0.41772	   0.31548	   0.21608	   0.12105	   0.03357	  -0.03995	  -0.09319	  -0.12521	  -0.14107	  -0.14761	  -0.15062	  -0.15359	  -0.15629	  -0.15708	  -0.15648	  -0.15653	  -0.15816	  -0.16198	  -0.16894	  -0.17836	  -0.18756	  -0.19282	  -0.19242	  -0.18786	  -0.18249	  -0.17915	  -0.17780	  -0.17587	  -0.17212	  -0.16967	  -0.17046	  -0.17214	  -0.17449	  -0.17883	  -0.18289	  -0.18334	  -0.17878	  -0.16926	  -0.15788	  -0.15090	  -0.15160	  -0.15666	  -0.16248	  -0.16884	  -0.17409	  -0.17518	  -0.17227	  -0.16751	  -0.16194	  -0.15627	  -0.15081	  -0.14621	  -0.14575	  -0.15198	  -0.16166	  -0.16894	  -0.17157	  -0.17174	  -0.17168	  -0.17136
   0.03296	   0.03576	   0.03598	   0.03584	   0.03773	   0.04400	   0.05386	   0.06351	   0.07344	   0.08654	   0.10024	   0.10880	   0.10945	   0.10301	   0.09128	   0.07564	   0.05773	   0.04010	   0.02538	   0.01539	   0.01089	   0.01089	   0.01315	   0.01587	   0.01597	   0.01037	   0.00057	  -0.01018	  -0.02053	  -0.02748	  -0.02672	  -0.01885	  -0.00863	  -0.00110	   0.00093	  -0.00054	  -0.00311	  -0.00619	  -0.00854	  -0.01124	  -0.01692	  -0.02486	  -0.03163	  -0.03340	  -0.02903	  -0.02092	  -0.01136	  -0.00234	   0.00285	   0.00221	  -0.00251	  -0.00782	  -0.01161	  -0.01490	  -0.01833	  -0.01824	  -0.01178	  -0.00158	   0.00850	   0.01622	   0.01989	   0.02064	   0.02223	   0.02652	   0.03352	   0.04410	   0.06176	   0.08966	   0.12160	   0.14285	   0.14351	   0.12336	   0.08501	   0.03053	  -0.03540	  -0.10157	  -0.15397	  -0.18455	  -0.19426	  -0.18990	  -0.17646	  -0.15562	  -0.12873	  -0.09112	  -0.02894	   0.07123	   0.20983	   0.37049	   0.52771	   0.65700	   0.74424	   0.79207	   0.81465	   0.82695	   0.83618	   0.83682	   0.81783	   0.77303	   0.70279	   0.61331	   0.51205	   0.40341	   0.29116	   0.18130	   0.08164	  -0.00026	  -0.05931	  -0.09493	  -0.11303	  -0.12303	  -0.13218	  -0.14484	  -0.16103	  -0.17459	  -0.18097	  -0.18348	  -0.18738	  -0.19315	  -0.19660	  -0.19464	  -0.18993	  -0.18737	  -0.18889	  -0.19278	  -0.19707	  -0.20233	  -0.20786	  -0.21026	  -0.20889	  -0.20512	  -0.19933	  -0.19262	  -0.18569	  -0.18046	  -0.18040	  -0.18526	  -0.19231	  -0.19972	  -0.20538	  -0.20682	  -0.20269	  -0.19358	  -0.18252	  -0.17259	  -0.16569	  -0.16341	  -0.16554	  -0.17141	  -0.18002	  -0.18824	  -0.19478	  -0.19954	  -0.19936	  -0.19308	  -0.18422	  -0.17660	  -0.17266	  -0.17255	  -0.17445	  -0.17828
   0.00495	   0.00727	   0.01795	   0.03321	   0.04794	   0.06025	   0.07089	   0.08057	   0.08835	   0.09149	   0.08608	   0.07273	   0.05818	   0.04694	   0.03917	   0.03558	   0.03689	   0.04057	   0.04095	   0.03509	   0.02601	   0.01628	   0.00530	  -0.00579	  -0.01407	  -0.01834	  -0.01880	  -0.01538	  -0.00943	  -0.00292	   0.00333	   0.00889	   0.01176	   0.00768	  -0.00444	  -0.01889	  -0.02903	  -0.03251	  -0.02977	  -0.02257	  -0.01435	  -0.00777	  -0.00422	  -0.00443	  -0.00702	  -0.01063	  -0.01641	  -0.02547	  -0.03459	  -0.03730	  -0.03096	  -0.01996	  -0.01134	  -0.00779	  -0.00699	  -0.00707	  -0.00822	  -0.01078	  -0.01479	  -0.02009	  -0.02589	  -0.02934	  -0.02625	  -0.01483	   0.00257	   0.02300	   0.04672	   0.07418	   0.10058	   0.11640	   0.11340	   0.08857	   0.04323	  -0.01648	  -0.07995	  -0.13687	  -0.18001	  -0.20173	  -0.19356	  -0.15622	  -0.10640	  -0.06597	  -0.04572	  -0.03933	  -0.02561	   0.02108	   0.11484	   0.24901	   0.39999	   0.53984	   0.64771	   0.71689	   0.75474	   0.77475	   0.78762	   0.79578	   0.79583	   0.78305	   0.75211	   0.70224	   0.63864	   0.56540	   0.48189	   0.38513	   0.27473	   0.15588	   0.03922	  -0.06266	  -0.13962	  -0.18604	  -0.20446	  -0.20509	  -0.19905	  -0.19397	  -0.19466	  -0.20276	  -0.21409	  -0.22439	  -0.23407	  -0.24243	  -0.24811	  -0.25089	  -0.25068	  -0.25052	  -0.25122	  -0.24798	  -0.24045	  -0.23369	  -0.23108	  -0.23345	  -0.23829	  -0.24048	  -0.23884	  -0.23624	  -0.23406	  -0.23148	  -0.22693	  -0.21983	  -0.21204	  -0.20585	  -0.20296	  -0.20444	  -0.21027	  -0.21992	  -0.23048	  -0.23629	  -0.23385	  -0.22504	  -0.21569	  -0.20903	  -0.20278	  -0.19626	  -0.19240	  -0.19290	  -0.19759	  -0.20466	  -0.21165	  -0.21662	  -0.21704	  -0.21140
   0.04967	   0.05137	   0.05246	   0.05084	   0.04952	   0.05379	   0.06548	   0.08164	   0.09731	   0.10835	   0.11088	   0.10369	   0.09162	   0.07938	   0.06544	   0.04828	   0.03288	   0.02479	   0.02309	   0.02322	   0.02215	   0.02050	   0.01981	   0.01777	   0.01006	  -0.00377	  -0.01803	  -0.02587	  -0.02561	  -0.01975	  -0.01129	  -0.00280	   0.00411	   0.00875	   0.00988	   0.00657	  -0.00016	  -0.00886	  -0.01756	  -0.02351	  -0.02572	  -0.02524	  -0.02406	  -0.02275	  -0.01894	  -0.01211	  -0.00636	  -0.00571	  -0.01032	  -0.01585	  -0.01783	  -0.01668	  -0.01469	  -0.01271	  -0.01093	  -0.00830	  -0.00352	   0.00311	   0.00968	   0.01247	   0.00898	   0.00257	  -0.00084	   0.00098	   0.00860	   0.02530	   0.05378	   0.09093	   0.12743	   0.15164	   0.15596	   0.13833	   0.09799	   0.03634	  -0.03828	  -0.11135	  -0.16696	  -0.19428	  -0.19300	  -0.17239	  -0.14440	  -0.11644	  -0.08787	  -0.04905	   0.01655	   0.12290	   0.26674	   0.42500	   0.57012	   0.68396	   0.76092	   0.80732	   0.83619	   0.85662	   0.86559	   0.85192	   0.80869	   0.73689	   0.64281	   0.53672	   0.42890	   0.32556	   0.22904	   0.14029	   0.06008	  -0.00931	  -0.06364	  -0.10201	  -0.12815	  -0.14490	  -0.15499	  -0.16335	  -0.17249	  -0.18106	  -0.18675	  -0.18783	  -0.18572	  -0.18416	  -0.18327	  -0.18171	  -0.18201	  -0.18643	  -0.19332	  -0.19940	  -0.20172	  -0.20018	  -0.19764	  -0.19535	  -0.19192	  -0.18654	  -0.18090	  -0.17735	  -0.17702	  -0.18013	  -0.18425	  -0.18606	  -0.18414	  -0.17912	  -0.17431	  -0.17116	  -0.16729	  -0.16210	  -0.15848	  -0.15832	  -0.15922	  -0.15832	  -0.15731	  -0.16016	  -0.16661	  -0.17107	  -0.16904	  -0.16071	  -0.14960	  -0.14012	  -0.13544	  -0.13543	  -0.13733	  -0.13975	  -0.14268	  -0.14533
   0.02769	   0.02065	   0.01550	   0.01407	   0.01696	   0.02486	   0.03761	   0.05310	   0.06914	   0.08290	   0.09149	   0.09387	   0.09140	   0.08671	   0.08111	   0.07453	   0.06638	   0.05726	   0.04934	   0.04336	   0.03849	   0.03407	   0.02871	   0.02080	   0.01075	   0.00105	  -0.00694	  -0.01457	  -0.02212	  -0.02675	  -0.02599	  -0.02047	  -0.01289	  -0.00498	   0.00250	   0.00702	   0.00453	  -0.00774	  -0.02657	  -0.04190	  -0.04593	  -0.03950	  -0.02861	  -0.01933	  -0.01379	  -0.01083	  -0.01025	  -0.01214	  -0.01591	  -0.02122	  -0.02684	  -0.03013	  -0.02860	  -0.02256	  -0.01508	  -0.00870	  -0.00475	  -0.00394	  -0.00552	  -0.00907	  -0.01502	  -0.02077	  -0.02227	  -0.01845	  -0.00789	   0.01271	   0.04201	   0.07433	   0.10622	   0.13314	   0.14428	   0.12974	   0.08906	   0.02922	  -0.04056	  -0.10845	  -0.16201	  -0.19336	  -0.20135	  -0.19147	  -0.17186	  -0.14841	  -0.12050	  -0.07718	  -0.00112	   0.11907	   0.27668	   0.44748	   0.60364	   0.72388	   0.79908	   0.83647	   0.85208	   0.85519	   0.84410	   0.81452	   0.76227	   0.68488	   0.58937	   0.48714	   0.38185	   0.27237	   0.16303	   0.06377	  -0.01630	  -0.07416	  -0.11356	  -0.13935	  -0.15450	  -0.16327	  -0.17085	  -0.17758	  -0.18094	  -0.18196	  -0.18322	  -0.18538	  -0.18767	  -0.18862	  -0.18921	  -0.19305	  -0.20006	  -0.20627	  -0.20979	  -0.21086	  -0.20945	  -0.20553	  -0.19849	  -0.18907	  -0.18115	  -0.17829	  -0.17988	  -0.18292	  -0.18687	  -0.19251	  -0.19843	  -0.20116	  -0.19795	  -0.18903	  -0.17774	  -0.16917	  -0.16561	  -0.16510	  -0.16740	  -0.17396	  -0.18204	  -0.18897	  -0.19463	  -0.19699	  -0.19581	  -0.19360	  -0.19088	  -0.18663	  -0.18080	  -0.17556	  -0.17452	  -0.17952	  -0.18858	  -0.19681	  -0.20118	  -0.20300
   0.00021	   0.00013	   0.00565	   0.01539	   0.02521	   0.03221	   0.03401	   0.03209	   0.03213	   0.03569	   0.03983	   0.04421	   0.05163	   0.06249	   0.07169	   0.07439	   0.07208	   0.06731	   0.06024	   0.05281	   0.04713	   0.04253	   0.03701	   0.02894	   0.01912	   0.01035	   0.00402	  -0.00034	  -0.00410	  -0.00937	  -0.01558	  -0.01856	  -0.01706	  -0.01352	  -0.01031	  -0.01067	  -0.01564	  -0.01953	  -0.01816	  -0.01469	  -0.01187	  -0.00944	  -0.00834	  -0.01060	  -0.01628	  -0.02279	  -0.02747	  -0.02989	  -0.03095	  -0.03086	  -0.02959	  -0.02739	  -0.02331	  -0.01660	  -0.00997	  -0.00762	  -0.01037	  -0.01524	  -0.01927	  -0.02145	  -0.02129	  -0.01796	  -0.01121	  -0.00184	   0.00862	   0.02046	   0.03724	   0.06016	   0.08360	   0.09955	   0.10345	   0.09473	   0.07227	   0.03335	  -0.02045	  -0.08163	  -0.13841	  -0.17488	  -0.17902	  -0.15314	  -0.11103	  -0.06825	  -0.03522	  -0.01244	   0.01223	   0.06038	   0.14963	   0.27852	   0.42505	   0.55919	   0.65934	   0.72190	   0.75625	   0.77401	   0.78355	   0.78880	   0.78844	   0.77573	   0.74296	   0.68788	   0.61604	   0.53661	   0.45443	   0.36602	   0.26652	   0.15733	   0.04676	  -0.05125	  -0.12488	  -0.17043	  -0.19029	  -0.19228	  -0.18736	  -0.18470	  -0.18918	  -0.20004	  -0.21272	  -0.22408	  -0.23336	  -0.24023	  -0.24422	  -0.24527	  -0.24427	  -0.24079	  -0.23393	  -0.22601	  -0.22132	  -0.22162	  -0.22505	  -0.22827	  -0.22995	  -0.23213	  -0.23502	  -0.23433	  -0.22762	  -0.21915	  -0.21436	  -0.21294	  -0.21243	  -0.21310	  -0.21503	  -0.21725	  -0.21973	  -0.22240	  -0.22320	  -0.21896	  -0.21003	  -0.20092	  -0.19485	  -0.19136	  -0.19079	  -0.19530	  -0.20294	  -0.20994	  -0.21620	  -0.22083	  -0.22073	  -0.21473	  -0.20404	  -0.19279
   0.06459	   0.07516	   0.08456	   0.09015	   0.09306	   0.09480	   0.09499	   0.09469	   0.09468	   0.09288	   0.08819	   0.08243	   0.07750	   0.07340	   0.06860	   0.06214	   0.05430	   0.04515	   0.03543	   0.02649	   0.01857	   0.01306	   0.01226	   0.01440	   0.01533	   0.01446	   0.01322	   0.01097	   0.00748	   0.00460	   0.00298	   0.00084	  -0.00278	  -0.00703	  -0.01075	  -0.01151	  -0.00696	  -0.00021	   0.00173	  -0.00171	  -0.00510	  -0.00829	  -0.01498	  -0.02389	  -0.03028	  -0.03200	  -0.02964	  -0.02391	  -0.01592	  -0.00796	  -0.00325	  -0.00397	  -0.00901	  -0.01535	  -0.02064	  -0.02364	  -0.02388	  -0.02142	  -0.01648	  -0.00889	   0.00035	   0.00796	   0.01323	   0.01857	   0.02449	   0.03315	   0.05029	   0.07681	   0.10467	   0.12371	   0.12764	   0.11344	   0.08055	   0.03100	  -0.03063	  -0.09444	  -0.14796	  -0.18226	  -0.19354	  -0.18563	  -0.16869	  -0.14810	  -0.11550	  -0.05355	   0.05002	   0.19409	   0.36183	   0.52432	   0.65509	   0.74324	   0.79313	   0.81754	   0.82976	   0.83419	   0.82313	   0.78561	   0.71869	   0.62823	   0.52157	   0.40381	   0.27948	   0.15584	   0.04316	  -0.04805	  -0.11084	  -0.14591	  -0.16029	  -0.16261	  -0.16075	  -0.15968	  -0.16115	  -0.16601	  -0.17553	  -0.18902	  -0.20168	  -0.21001	  -0.21529	  -0.21812	  -0.21672	  -0.21076	  -0.20292	  -0.19650	  -0.19207	  -0.18891	  -0.18878	  -0.19419	  -0.20171	  -0.20577	  -0.20737	  -0.20784	  -0.20391	  -0.19517	  -0.18523	  -0.17654	  -0.17056	  -0.16858	  -0.17060	  -0.17506	  -0.17959	  -0.18284	  -0.18503	  -0.18659	  -0.18676	  -0.18393	  -0.17770	  -0.17013	  -0.16456	  -0.16230	  -0.16228	  -0.16456	  -0.17029	  -0.17787	  -0.18322	  -0.18312	  -0.17735	  -0.16875	  -0.16021	  -0.15220	  -0.14630	  -0.14689
   0.01683	   0.02654	   0.03593	   0.04455	   0.05362	   0.06408	   0.07544	   0.08494	   0.08964	   0.08833	   0.08286	   0.07671	   0.07174	   0.06820	   0.06376	   0.05556	   0.04667	   0.04209	   0.03985	   0.03325	   0.01934	   0.00255	  -0.00966	  -0.01390	  -0.01306	  -0.01178	  -0.01157	  -0.01119	  -0.00994	  -0.00905	  -0.00991	  -0.01156	  -0.01140	  -0.01045	  -0.01304	  -0.01993	  -0.02720	  -0.03107	  -0.03061	  -0.02703	  -0.02295	  -0.01945	  -0.01557	  -0.01378	  -0.01744	  -0.02385	  -0.02896	  -0.03205	  -0.03202	  -0.02782	  -0.02090	  -0.01319	  -0.00625	  -0.00246	  -0.00312	  -0.00632	  -0.01032	  -0.01436	  -0.01666	  -0.01636	  -0.01363	  -0.00802	   0.00169	   0.01763	   0.04113	   0.07044	   0.10042	   0.12537	   0.14014	   0.13913	   0.12071	   0.08839	   0.04569	  -0.00449	  -0.05850	  -0.10997	  -0.15051	  -0.17509	  -0.18415	  -0.18245	  -0.17550	  -0.16500	  -0.14772	  -0.11300	  -0.04364	   0.07115	   0.22407	   0.39382	   0.55374	   0.67755	   0.75238	   0.78656	   0.79883	   0.80443	   0.80751	   0.80239	   0.78097	   0.73837	   0.67605	   0.59886	   0.50961	   0.41067	   0.30641	   0.20070	   0.09718	   0.00322	  -0.07301	  -0.12639	  -0.15427	  -0.16018	  -0.15529	  -0.15102	  -0.15351	  -0.16353	  -0.17683	  -0.18860	  -0.19764	  -0.20395	  -0.20710	  -0.20750	  -0.20616	  -0.20407	  -0.20169	  -0.19864	  -0.19506	  -0.19352	  -0.19735	  -0.20508	  -0.21140	  -0.21333	  -0.21159	  -0.20839	  -0.20485	  -0.19926	  -0.19082	  -0.18365	  -0.18173	  -0.18416	  -0.18754	  -0.18980	  -0.19212	  -0.19553	  -0.19825	  -0.19835	  -0.19644	  -0.19373	  -0.18988	  -0.18552	  -0.18222	  -0.18043	  -0.18071	  -0.18220	  -0.18348	  -0.18592	  -0.19003	  -0.19343	  -0.19338	  -0.18836	  -0.17988	  -0.17188
   0.01924	   0.01802	   0.02097	   0.02698	   0.03479	   0.04451	   0.05840	   0.07654	   0.09358	   0.10423	   0.10654	   0.09999	   0.08720	   0.07212	   0.05546	   0.03932	   0.02920	   0.02735	   0.03069	   0.03360	   0.03171	   0.02474	   0.01537	   0.00587	  -0.00342	  -0.01324	  -0.02332	  -0.03040	  -0.03067	  -0.02359	  -0.00998	   0.00877	   0.02652	   0.03455	   0.02890	   0.01312	  -0.00478	  -0.01855	  -0.02617	  -0.02789	  -0.02578	  -0.02245	  -0.01831	  -0.01248	  -0.00570	  -0.00086	  -0.00048	  -0.00448	  -0.00995	  -0.01379	  -0.01499	  -0.01348	  -0.01042	  -0.00874	  -0.00903	  -0.00744	  -0.00147	   0.00520	   0.00856	   0.00936	   0.00844	   0.00418	  -0.00287	  -0.00829	  -0.00767	   0.00255	   0.02458	   0.05573	   0.08894	   0.11539	   0.12670	   0.11798	   0.08803	   0.03781	  -0.02857	  -0.10140	  -0.16443	  -0.20127	  -0.20564	  -0.18209	  -0.14033	  -0.09347	  -0.05441	  -0.02648	   0.00086	   0.04621	   0.12624	   0.24489	   0.38750	   0.52791	   0.64281	   0.72171	   0.76835	   0.79436	   0.81037	   0.82101	   0.82269	   0.80485	   0.75873	   0.68752	   0.60387	   0.51704	   0.42677	   0.32883	   0.22184	   0.11177	   0.01101	  -0.06992	  -0.12793	  -0.16502	  -0.18462	  -0.19185	  -0.19372	  -0.19509	  -0.19683	  -0.19797	  -0.19794	  -0.19839	  -0.20211	  -0.20980	  -0.21940	  -0.22690	  -0.22972	  -0.22971	  -0.22975	  -0.22975	  -0.22684	  -0.21864	  -0.20770	  -0.20071	  -0.19991	  -0.20028	  -0.19954	  -0.20143	  -0.20725	  -0.21298	  -0.21434	  -0.21097	  -0.20557	  -0.20024	  -0.19504	  -0.18975	  -0.18652	  -0.18726	  -0.18904	  -0.18909	  -0.18912	  -0.19057	  -0.19257	  -0.19361	  -0.19197	  -0.18708	  -0.18024	  -0.17441	  -0.17164	  -0.17137	  -0.17402	  -0.17989	  -0.18615	  -0.18924
   0.05151	   0.05071	   0.04898	   0.04629	   0.04484	   0.04914	   0.06158	   0.07764	   0.08948	   0.09272	   0.08828	   0.07878	   0.06711	   0.05648	   0.04675	   0.03493	   0.02108	   0.00859	   0.00067	  -0.00188	  -0.00047	   0.00306	   0.00623	   0.00667	   0.00456	   0.00188	  -0.00170	  -0.00763	  -0.01250	  -0.01065	  -0.00221	   0.00684	   0.01107	   0.00875	   0.00080	  -0.00955	  -0.01735	  -0.01961	  -0.01887	  -0.02037	  -0.02551	  -0.03062	  -0.03157	  -0.02763	  -0.02111	  -0.01516	  -0.01208	  -0.01180	  -0.01388	  -0.01878	  -0.02498	  -0.03067	  -0.03568	  -0.03822	  -0.03712	  -0.03418	  -0.02885	  -0.01910	  -0.00791	  -0.00027	   0.00225	   0.00045	  -0.00386	  -0.00670	  -0.00239	   0.01268	   0.03812	   0.07129	   0.10614	   0.13043	   0.13160	   0.10445	   0.05246	  -0.01474	  -0.08586	  -0.14985	  -0.19664	  -0.21963	  -0.21703	  -0.19356	  -0.15994	  -0.12715	  -0.09820	  -0.06194	   0.00173	   0.10553	   0.24335	   0.39396	   0.53222	   0.64026	   0.71440	   0.76098	   0.79004	   0.81240	   0.83184	   0.83928	   0.82121	   0.77112	   0.69083	   0.59038	   0.48511	   0.38398	   0.28524	   0.18639	   0.09140	   0.00726	  -0.06070	  -0.10984	  -0.14201	  -0.16296	  -0.17759	  -0.18944	  -0.20097	  -0.21114	  -0.21759	  -0.22079	  -0.22285	  -0.22338	  -0.22210	  -0.22297	  -0.22804	  -0.23349	  -0.23639	  -0.23762	  -0.23876	  -0.24109	  -0.24349	  -0.24239	  -0.23704	  -0.22933	  -0.22088	  -0.21394	  -0.21025	  -0.20972	  -0.21237	  -0.21752	  -0.22225	  -0.22384	  -0.22129	  -0.21498	  -0.20681	  -0.19867	  -0.19065	  -0.18386	  -0.18199	  -0.18668	  -0.19465	  -0.20269	  -0.20982	  -0.21288	  -0.20901	  -0.20075	  -0.19221	  -0.18465	  -0.17842	  -0.17479	  -0.17428	  -0.17634	  -0.18059	  -0.18666
   0.01987	   0.02443	   0.02918	   0.03563	   0.04468	   0.05550	   0.06534	   0.07246	   0.07886	   0.08539	   0.08991	   0.09258	   0.09556	   0.09843	   0.09827	   0.09369	   0.08599	   0.07697	   0.06777	   0.05766	   0.04420	   0.02719	   0.01030	  -0.00116	  -0.00364	   0.00134	   0.00788	   0.01155	   0.01104	   0.00675	   0.00318	   0.00427	   0.00718	   0.00761	   0.00537	   0.00284	   0.00134	   0.00105	   0.00256	   0.00488	   0.00486	   0.00102	  -0.00439	  -0.00930	  -0.01411	  -0.01894	  -0.02217	  -0.02256	  -0.02175	  -0.02126	  -0.01806	  -0.00973	   0.00000	   0.00578	   0.00585	   0.00065	  -0.00920	  -0.01945	  -0.02440	  -0.02379	  -0.02001	  -0.01337	  -0.00275	   0.01186	   0.02850	   0.04725	   0.07119	   0.09987	   0.12632	   0.14064	   0.13609	   0.11326	   0.07697	   0.03161	  -0.01938	  -0.07091	  -0.11548	  -0.14726	  -0.16575	  -0.17450	  -0.17759	  -0.17723	  -0.16951	  -0.14517	  -0.09537	  -0.00990	   0.11916	   0.28408	   0.46063	   0.61744	   0.72881	   0.78941	   0.81337	   0.81913	   0.81872	   0.81582	   0.80555	   0.77641	   0.72101	   0.64453	   0.55813	   0.46608	   0.36531	   0.25544	   0.14247	   0.03751	  -0.04699	  -0.10370	  -0.13342	  -0.14419	  -0.14707	  -0.15015	  -0.15564	  -0.16150	  -0.16628	  -0.17187	  -0.18074	  -0.19275	  -0.20396	  -0.20969	  -0.20926	  -0.20567	  -0.20329	  -0.20423	  -0.20637	  -0.20784	  -0.20859	  -0.20821	  -0.20771	  -0.21015	  -0.21538	  -0.21838	  -0.21536	  -0.20748	  -0.19887	  -0.19305	  -0.19051	  -0.19007	  -0.19130	  -0.19387	  -0.19633	  -0.19679	  -0.19582	  -0.19617	  -0.19749	  -0.19564	  -0.18875	  -0.17990	  -0.17372	  -0.17295	  -0.17723	  -0.18253	  -0.18545	  -0.18691	  -0.18874	  -0.19088	  -0.19134	  -0.18752	  -0.17963	  -0.17080
   0.04058	   0.03939	   0.03728	   0.03688	   0.04135	   0.05099	   0.06193	   0.07248	   0.08359	   0.09459	   0.10154	   0.10057	   0.09238	   0.07989	   0.06515	   0.04976	   0.03536	   0.02469	   0.01957	   0.01875	   0.02020	   0.02129	   0.01927	   0.01440	   0.00764	  -0.00174	  -0.01405	  -0.02649	  -0.03347	  -0.03186	  -0.02233	  -0.00715	   0.00844	   0.01837	   0.02060	   0.01744	   0.01172	   0.00433	  -0.00370	  -0.01096	  -0.01721	  -0.02168	  -0.02179	  -0.01669	  -0.01021	  -0.00597	  -0.00386	  -0.00302	  -0.00239	  -0.00148	  -0.00217	  -0.00525	  -0.00964	  -0.01497	  -0.01879	  -0.01755	  -0.01211	  -0.00573	   0.00082	   0.00834	   0.01578	   0.02004	   0.01943	   0.01721	   0.01941	   0.03034	   0.05160	   0.08054	   0.10907	   0.12855	   0.13293	   0.11661	   0.07693	   0.01759	  -0.05324	  -0.12278	  -0.17426	  -0.19411	  -0.17847	  -0.13604	  -0.08502	  -0.04299	  -0.01625	   0.00538	   0.04454	   0.12144	   0.23817	   0.37728	   0.51292	   0.62388	   0.70147	   0.74847	   0.77403	   0.79003	   0.80484	   0.81502	   0.80801	   0.77468	   0.71404	   0.63247	   0.54130	   0.44648	   0.34509	   0.23521	   0.12179	   0.01584	  -0.06922	  -0.12610	  -0.15719	  -0.17033	  -0.17674	  -0.18553	  -0.19667	  -0.20598	  -0.21261	  -0.21696	  -0.21729	  -0.21317	  -0.20939	  -0.20967	  -0.21229	  -0.21696	  -0.22391	  -0.22859	  -0.22896	  -0.22734	  -0.22419	  -0.21932	  -0.21381	  -0.20919	  -0.20563	  -0.20223	  -0.20066	  -0.20277	  -0.20736	  -0.21204	  -0.21537	  -0.21789	  -0.21975	  -0.21908	  -0.21406	  -0.20562	  -0.19777	  -0.19302	  -0.19028	  -0.18930	  -0.19171	  -0.19873	  -0.20930	  -0.21744	  -0.21683	  -0.20987	  -0.20352	  -0.19870	  -0.19373	  -0.19062	  -0.19178	  -0.19658	  -0.20161	  -0.20514
   0.04777	   0.05295	   0.05158	   0.04668	   0.04264	   0.04051	   0.03779	   0.03351	   0.03204	   0.03855	   0.05249	   0.07009	   0.08883	   0.10529	   0.11442	   0.11343	   0.10383	   0.09018	   0.07632	   0.06383	   0.05371	   0.04703	   0.04405	   0.04326	   0.04216	   0.03864	   0.03165	   0.02242	   0.01255	   0.00247	  -0.00761	  -0.01785	  -0.02630	  -0.02815	  -0.02151	  -0.00880	   0.00637	   0.01770	   0.01881	   0.00997	  -0.00411	  -0.01905	  -0.03146	  -0.03916	  -0.04067	  -0.03583	  -0.02767	  -0.02003	  -0.01423	  -0.00991	  -0.00697	  -0.00819	  -0.01559	  -0.02444	  -0.02927	  -0.02965	  -0.02696	  -0.02194	  -0.01568	  -0.01027	  -0.00681	  -0.00466	  -0.00305	  -0.00298	  -0.00519	  -0.00623	  -0.00026	   0.01684	   0.04469	   0.07820	   0.10962	   0.12844	   0.12354	   0.08904	   0.02769	  -0.04909	  -0.12513	  -0.18488	  -0.21723	  -0.21963	  -0.19879	  -0.16574	  -0.12652	  -0.07313	   0.01129	   0.13622	   0.29336	   0.45713	   0.59825	   0.69908	   0.75730	   0.78440	   0.79694	   0.80253	   0.79736	   0.77233	   0.71933	   0.63663	   0.53186	   0.41719	   0.30016	   0.18494	   0.07842	  -0.01160	  -0.08001	  -0.12462	  -0.14692	  -0.15207	  -0.14852	  -0.14733	  -0.15480	  -0.16732	  -0.17920	  -0.18956	  -0.19832	  -0.20408	  -0.20794	  -0.21087	  -0.20959	  -0.20297	  -0.19580	  -0.19205	  -0.19203	  -0.19447	  -0.19841	  -0.20364	  -0.20945	  -0.21393	  -0.21403	  -0.20758	  -0.19630	  -0.18536	  -0.17881	  -0.17649	  -0.17637	  -0.17855	  -0.18398	  -0.19047	  -0.19468	  -0.19574	  -0.19391	  -0.18932	  -0.18187	  -0.17236	  -0.16419	  -0.16015	  -0.15914	  -0.15910	  -0.16054	  -0.16440	  -0.16887	  -0.17137	  -0.17119	  -0.16869	  -0.16436	  -0.15841	  -0.14988	  -0.13934	  -0.13171	  -0.13194
   0.02461	   0.03435	   0.04681	   0.06115	   0.07668	   0.08991	   0.09746	   0.10061	   0.10063	   0.09490	   0.08277	   0.06883	   0.05700	   0.04800	   0.04195	   0.03770	   0.03317	   0.02862	   0.02445	   0.01814	   0.00835	  -0.00220	  -0.01032	  -0.01502	  -0.01692	  -0.01813	  -0.01963	  -0.01868	  -0.01261	  -0.00277	   0.00664	   0.01202	   0.01191	   0.00566	  -0.00654	  -0.02045	  -0.02871	  -0.02822	  -0.02244	  -0.01608	  -0.01169	  -0.00963	  -0.00959	  -0.01159	  -0.01527	  -0.01954	  -0.02361	  -0.02602	  -0.02510	  -0.02128	  -0.01614	  -0.01141	  -0.00853	  -0.00739	  -0.00691	  -0.00626	  -0.00588	  -0.00687	  -0.00963	  -0.01269	  -0.01262	  -0.00733	   0.00204	   0.01352	   0.02729	   0.04489	   0.06710	   0.09380	   0.12044	   0.13713	   0.13483	   0.11147	   0.07387	   0.03085	  -0.01441	  -0.06202	  -0.10857	  -0.14501	  -0.16376	  -0.16594	  -0.15911	  -0.15137	  -0.14661	  -0.13901	  -0.11278	  -0.04971	   0.06049	   0.21060	   0.37759	   0.53398	   0.65744	   0.73863	   0.78271	   0.80247	   0.80961	   0.80992	   0.80298	   0.78350	   0.74544	   0.68744	   0.61348	   0.52806	   0.43191	   0.32550	   0.21384	   0.10478	   0.00772	  -0.06735	  -0.11621	  -0.14298	  -0.15383	  -0.15456	  -0.15207	  -0.15224	  -0.15829	  -0.17088	  -0.18781	  -0.20369	  -0.21378	  -0.21827	  -0.21993	  -0.22055	  -0.21960	  -0.21589	  -0.21093	  -0.20719	  -0.20570	  -0.20619	  -0.20769	  -0.21049	  -0.21445	  -0.21789	  -0.22056	  -0.22224	  -0.21990	  -0.21227	  -0.20274	  -0.19569	  -0.19412	  -0.19716	  -0.20169	  -0.20738	  -0.21282	  -0.21399	  -0.21033	  -0.20385	  -0.19672	  -0.19141	  -0.18764	  -0.18365	  -0.18061	  -0.18101	  -0.18416	  -0.18832	  -0.19406	  -0.20034	  -0.20315	  -0.19987	  -0.19188	  -0.18379
   0.03236	   0.03916	   0.04319	   0.04652	   0.05095	   0.05592	   0.06156	   0.06824	   0.07489	   0.08124	   0.08705	   0.09056	   0.09085	   0.08709	   0.07857	   0.06783	   0.05739	   0.04621	   0.03402	   0.02297	   0.01582	   0.01363	   0.01286	   0.01034	   0.00712	   0.00443	   0.00216	  -0.00191	  -0.00885	  -0.01364	  -0.01201	  -0.00509	   0.00493	   0.01452	   0.01861	   0.01636	   0.01176	   0.00836	   0.00747	   0.00838	   0.00813	   0.00439	  -0.00119	  -0.00409	  -0.00147	   0.00472	   0.01074	   0.01442	   0.01504	   0.01434	   0.01453	   0.01384	   0.00976	   0.00396	  -0.00061	  -0.00238	   0.00019	   0.00669	   0.01314	   0.01640	   0.01667	   0.01622	   0.01835	   0.02432	   0.03269	   0.04289	   0.05787	   0.07997	   0.10431	   0.12130	   0.12389	   0.11138	   0.08634	   0.04724	  -0.00852	  -0.07403	  -0.13265	  -0.16827	  -0.17379	  -0.15184	  -0.11198	  -0.06948	  -0.03671	  -0.01076	   0.02559	   0.09219	   0.19794	   0.33165	   0.46849	   0.58621	   0.67297	   0.72851	   0.76334	   0.78953	   0.80890	   0.81455	   0.80075	   0.76541	   0.71089	   0.64305	   0.56455	   0.47330	   0.36744	   0.25084	   0.13389	   0.02859	  -0.05668	  -0.11830	  -0.15437	  -0.16638	  -0.16451	  -0.16209	  -0.16405	  -0.16999	  -0.18274	  -0.20199	  -0.21944	  -0.22875	  -0.23060	  -0.22690	  -0.21949	  -0.21187	  -0.20727	  -0.20659	  -0.20948	  -0.21540	  -0.22219	  -0.22589	  -0.22476	  -0.22150	  -0.21898	  -0.21697	  -0.21387	  -0.20886	  -0.20368	  -0.20185	  -0.20350	  -0.20619	  -0.20975	  -0.21324	  -0.21373	  -0.21109	  -0.20625	  -0.19799	  -0.18836	  -0.18330	  -0.18503	  -0.19049	  -0.19570	  -0.19792	  -0.19775	  -0.19884	  -0.20191	  -0.20303	  -0.19997	  -0.19546	  -0.19213	  -0.18973	  -0.18802	  -0.18718
   0.04956	   0.05525	   0.05869	   0.06043	   0.06059	   0.05872	   0.05531	   0.05146	   0.04945	   0.05216	   0.06079	   0.07441	   0.09039	   0.10595	   0.11789	   0.12296	   0.12152	   0.11800	   0.11464	   0.10883	   0.09879	   0.08589	   0.07251	   0.06063	   0.05028	   0.04088	   0.03206	   0.02286	   0.01470	   0.01009	   0.00800	   0.00579	   0.00269	   0.00192	   0.00736	   0.01577	   0.02013	   0.01854	   0.01292	   0.00680	   0.00386	   0.00231	  -0.00292	  -0.01247	  -0.02255	  -0.02844	  -0.02659	  -0.01852	  -0.00981	  -0.00336	   0.00081	   0.00132	  -0.00189	  -0.00522	  -0.00717	  -0.00966	  -0.01347	  -0.01712	  -0.01706	  -0.01050	   0.00110	   0.01407	   0.02507	   0.03317	   0.04188	   0.05571	   0.07561	   0.09794	   0.11632	   0.12553	   0.12238	   0.10376	   0.06838	   0.01914	  -0.03841	  -0.09659	  -0.14586	  -0.17904	  -0.19223	  -0.18556	  -0.16747	  -0.14915	  -0.13438	  -0.11612	  -0.07906	  -0.00647	   0.10998	   0.26045	   0.41884	   0.55736	   0.65934	   0.72426	   0.76248	   0.78525	   0.80035	   0.81209	   0.81946	   0.81391	   0.78328	   0.72059	   0.63025	   0.52458	   0.41451	   0.30617	   0.20228	   0.10431	   0.01583	  -0.05783	  -0.11168	  -0.14314	  -0.15761	  -0.16610	  -0.17531	  -0.18585	  -0.19620	  -0.20493	  -0.21194	  -0.21752	  -0.22184	  -0.22493	  -0.22579	  -0.22318	  -0.21713	  -0.21051	  -0.20753	  -0.21056	  -0.21844	  -0.22751	  -0.23386	  -0.23423	  -0.22953	  -0.22505	  -0.22218	  -0.21676	  -0.20799	  -0.20113	  -0.20038	  -0.20499	  -0.21171	  -0.21758	  -0.22131	  -0.22237	  -0.21947	  -0.21252	  -0.20339	  -0.19354	  -0.18484	  -0.17938	  -0.17792	  -0.18107	  -0.18853	  -0.19721	  -0.20339	  -0.20525	  -0.20262	  -0.19758	  -0.19303	  -0.18864	  -0.18265	  -0.17603
   0.02780	   0.02138	   0.01532	   0.01455	   0.02186	   0.03669	   0.05578	   0.07404	   0.08684	   0.09421	   0.09968	   0.10271	   0.09978	   0.09107	   0.08035	   0.07146	   0.06528	   0.05985	   0.05445	   0.05021	   0.04657	   0.04036	   0.02929	   0.01579	   0.00513	  -0.00085	  -0.00415	  -0.00634	  -0.00848	  -0.01123	  -0.01289	  -0.01094	  -0.00586	  -0.00108	   0.00133	   0.00035	  -0.00567	  -0.01607	  -0.02678	  -0.03348	  -0.03277	  -0.02381	  -0.01239	  -0.00679	  -0.00838	  -0.01262	  -0.01645	  -0.02063	  -0.02720	  -0.03516	  -0.03990	  -0.03842	  -0.03200	  -0.02289	  -0.01223	  -0.00274	   0.00144	  -0.00026	  -0.00436	  -0.00758	  -0.01006	  -0.01323	  -0.01486	  -0.01012	   0.00355	   0.02531	   0.05365	   0.08683	   0.11987	   0.14441	   0.15262	   0.13922	   0.10297	   0.04854	  -0.01449	  -0.07465	  -0.12308	  -0.15479	  -0.16718	  -0.16450	  -0.15644	  -0.14743	  -0.13535	  -0.11190	  -0.06022	   0.03523	   0.17549	   0.34414	   0.51263	   0.65292	   0.74959	   0.80135	   0.81934	   0.82153	   0.81793	   0.80488	   0.77470	   0.72267	   0.64946	   0.56161	   0.46656	   0.36818	   0.26752	   0.16637	   0.07066	  -0.01013	  -0.06959	  -0.10972	  -0.13722	  -0.15594	  -0.16532	  -0.16586	  -0.16205	  -0.15944	  -0.16055	  -0.16314	  -0.16571	  -0.17089	  -0.17997	  -0.19028	  -0.19874	  -0.20439	  -0.20752	  -0.20775	  -0.20381	  -0.19570	  -0.18512	  -0.17515	  -0.17060	  -0.17384	  -0.18119	  -0.18690	  -0.18939	  -0.19107	  -0.19333	  -0.19438	  -0.19128	  -0.18433	  -0.17725	  -0.17219	  -0.17038	  -0.17332	  -0.17854	  -0.18222	  -0.18417	  -0.18493	  -0.18474	  -0.18475	  -0.18444	  -0.18170	  -0.17558	  -0.16666	  -0.15807	  -0.15426	  -0.15744	  -0.16648	  -0.17753	  -0.18586	  -0.18937	  -0.18902
   0.03448	   0.02730	   0.01807	   0.00991	   0.00631	   0.01040	   0.02123	   0.03480	   0.04874	   0.06234	   0.07463	   0.08421	   0.08866	   0.08517	   0.07388	   0.05827	   0.04170	   0.02696	   0.01766	   0.01599	   0.01937	   0.02187	   0.01977	   0.01400	   0.00667	  -0.00264	  -0.01451	  -0.02561	  -0.03235	  -0.03461	  -0.03183	  -0.02227	  -0.00743	   0.00710	   0.01509	   0.01427	   0.00653	  -0.00655	  -0.02314	  -0.03812	  -0.04585	  -0.04497	  -0.03857	  -0.03113	  -0.02347	  -0.01256	  -0.00016	   0.00668	   0.00380	  -0.00791	  -0.02297	  -0.03296	  -0.03349	  -0.02879	  -0.02405	  -0.01853	  -0.01083	  -0.00247	   0.00528	   0.01251	   0.01867	   0.02054	   0.01534	   0.00667	   0.00308	   0.01011	   0.02621	   0.04812	   0.07475	   0.10360	   0.12722	   0.13409	   0.11637	   0.07447	   0.01363	  -0.05763	  -0.12770	  -0.18315	  -0.20979	  -0.19881	  -0.15575	  -0.09960	  -0.05066	  -0.01803	   0.00567	   0.04026	   0.10608	   0.21277	   0.35166	   0.49625	   0.61776	   0.70276	   0.75595	   0.78916	   0.80978	   0.81933	   0.81601	   0.79651	   0.75713	   0.69712	   0.62340	   0.54471	   0.46170	   0.36849	   0.26221	   0.14997	   0.04575	  -0.03832	  -0.09586	  -0.12868	  -0.14622	  -0.15725	  -0.16593	  -0.17474	  -0.18425	  -0.19213	  -0.19547	  -0.19411	  -0.19226	  -0.19407	  -0.19857	  -0.20341	  -0.20955	  -0.21729	  -0.22357	  -0.22571	  -0.22324	  -0.21733	  -0.21038	  -0.20397	  -0.19775	  -0.19195	  -0.18904	  -0.19092	  -0.19671	  -0.20342	  -0.20824	  -0.21137	  -0.21339	  -0.21196	  -0.20421	  -0.19071	  -0.17819	  -0.17443	  -0.17892	  -0.18509	  -0.18988	  -0.19536	  -0.20183	  -0.20580	  -0.20524	  -0.19965	  -0.19002	  -0.18152	  -0.17787	  -0.17722	  -0.17801	  -0.18113	  -0.18595	  -0.19023
   0.03282	   0.03949	   0.04957	   0.05665	   0.05538	   0.05034	   0.04844	   0.05059	   0.05440	   0.05932	   0.06660	   0.07565	   0.08411	   0.09052	   0.09384	   0.09183	   0.08248	   0.06793	   0.05407	   0.04544	   0.04192	   0.03915	   0.03407	   0.02879	   0.02603	   0.02562	   0.02568	   0.02351	   0.01699	   0.00703	  -0.00292	  -0.01032	  -0.01521	  -0.01694	  -0.01241	  -0.00215	   0.00836	   0.01446	   0.01389	   0.00757	  -0.00020	  -0.00637	  -0.01037	  -0.01334	  -0.01731	  -0.02135	  -0.02313	  -0.02155	  -0.01521	  -0.00604	   0.00118	   0.00499	   0.00658	   0.00561	   0.00027	  -0.00800	  -0.01488	  -0.01880	  -0.01967	  -0.01637	  -0.00955	  -0.00182	   0.00543	   0.01106	   0.01326	   0.01425	   0.01996	   0.03305	   0.05247	   0.07624	   0.09953	   0.11247	   0.10314	   0.06578	   0.00595	  -0.06334	  -0.12823	  -0.17547	  -0.19434	  -0.18318	  -0.15171	  -0.11471	  -0.08037	  -0.04150	   0.02204	   0.12764	   0.27228	   0.43217	   0.57739	   0.68636	   0.75438	   0.79068	   0.80872	   0.81763	   0.81669	   0.79853	   0.75729	   0.69232	   0.60805	   0.51090	   0.40484	   0.29119	   0.17308	   0.05922	  -0.03865	  -0.11248	  -0.16027	  -0.18503	  -0.19329	  -0.19237	  -0.18910	  -0.18967	  -0.19744	  -0.21027	  -0.22312	  -0.23337	  -0.24122	  -0.24661	  -0.24786	  -0.24405	  -0.23627	  -0.22688	  -0.21903	  -0.21545	  -0.21712	  -0.22279	  -0.23028	  -0.23644	  -0.23777	  -0.23444	  -0.22990	  -0.22642	  -0.22264	  -0.21687	  -0.21046	  -0.20552	  -0.20409	  -0.20732	  -0.21314	  -0.21810	  -0.22023	  -0.21941	  -0.21761	  -0.21534	  -0.20974	  -0.20111	  -0.19370	  -0.18925	  -0.18665	  -0.18521	  -0.18598	  -0.18967	  -0.19497	  -0.19998	  -0.20247	  -0.20156	  -0.19785	  -0.19098	  -0.18172	  -0.17364
   0.02901	   0.03341	   0.03987	   0.04697	   0.05610	   0.06978	   0.08725	   0.10549	   0.11975	   0.12497	   0.11908	   0.10513	   0.08899	   0.07315	   0.05813	   0.04613	   0.03796	   0.03315	   0.03129	   0.03012	   0.02795	   0.02568	   0.02243	   0.01507	   0.00309	  -0.01001	  -0.01965	  -0.02379	  -0.02285	  -0.01699	  -0.00726	   0.00385	   0.01411	   0.01965	   0.01587	   0.00293	  -0.01476	  -0.03036	  -0.03638	  -0.03163	  -0.02282	  -0.01603	  -0.01248	  -0.01112	  -0.01050	  -0.01158	  -0.01753	  -0.02756	  -0.03596	  -0.03866	  -0.03594	  -0.02989	  -0.02198	  -0.01369	  -0.00708	  -0.00282	  -0.00110	  -0.00253	  -0.00611	  -0.00952	  -0.01152	  -0.01340	  -0.01533	  -0.01220	   0.00023	   0.02050	   0.04610	   0.07556	   0.10560	   0.12893	   0.13590	   0.12059	   0.08450	   0.03358	  -0.02464	  -0.08112	  -0.12805	  -0.16050	  -0.17621	  -0.17859	  -0.17497	  -0.16907	  -0.15930	  -0.14153	  -0.10690	  -0.04012	   0.07236	   0.22870	   0.40418	   0.56368	   0.68379	   0.75941	   0.79841	   0.81356	   0.81545	   0.81064	   0.79825	   0.76913	   0.71642	   0.64302	   0.55743	   0.46749	   0.37584	   0.27892	   0.17509	   0.07275	  -0.01533	  -0.08072	  -0.12199	  -0.14406	  -0.15426	  -0.15837	  -0.15921	  -0.16008	  -0.16472	  -0.17230	  -0.18044	  -0.18866	  -0.19594	  -0.20098	  -0.20342	  -0.20325	  -0.20183	  -0.20013	  -0.19673	  -0.19172	  -0.18742	  -0.18613	  -0.18845	  -0.19191	  -0.19528	  -0.19886	  -0.20091	  -0.20067	  -0.20039	  -0.20090	  -0.19945	  -0.19311	  -0.18300	  -0.17415	  -0.17045	  -0.17159	  -0.17543	  -0.18053	  -0.18603	  -0.19080	  -0.19251	  -0.18857	  -0.17962	  -0.17043	  -0.16371	  -0.15903	  -0.15834	  -0.16277	  -0.16875	  -0.17204	  -0.17295	  -0.17577	  -0.18246	  -0.18926
  -0.00396	  -0.00243	   0.00605	   0.01761	   0.02761	   0.03589	   0.04398	   0.05048	   0.05309	   0.05281	   0.05247	   0.05239	   0.05073	   0.04675	   0.04214	   0.03938	   0.03952	   0.03972	   0.03537	   0.02628	   0.01472	   0.00095	  -0.01390	  -0.02552	  -0.03006	  -0.02906	  -0.02651	  -0.02338	  -0.01845	  -0.01076	  -0.00205	   0.00301	   0.00167	  -0.00485	  -0.01426	  -0.02435	  -0.03293	  -0.03740	  -0.03501	  -0.02732	  -0.02060	  -0.01852	  -0.01950	  -0.02207	  -0.02612	  -0.03066	  -0.03463	  -0.03724	  -0.03735	  -0.03417	  -0.02949	  -0.02596	  -0.02286	  -0.01842	  -0.01448	  -0.01438	  -0.01727	  -0.01957	  -0.02215	  -0.02720	  -0.03092	  -0.02754	  -0.01676	  -0.00354	   0.00868	   0.02200	   0.04088	   0.06674	   0.09444	   0.11485	   0.11987	   0.10590	   0.07591	   0.03477	  -0.01482	  -0.06987	  -0.12412	  -0.16698	  -0.18664	  -0.17922	  -0.15355	  -0.12344	  -0.09923	  -0.08157	  -0.05742	  -0.00768	   0.08134	   0.21062	   0.36414	   0.51513	   0.63901	   0.72200	   0.76574	   0.78321	   0.78824	   0.78941	   0.78652	   0.77117	   0.73451	   0.67426	   0.59585	   0.50729	   0.41301	   0.31168	   0.20039	   0.08451	  -0.02097	  -0.10098	  -0.14776	  -0.16504	  -0.16491	  -0.16033	  -0.16035	  -0.16679	  -0.17655	  -0.18678	  -0.19705	  -0.20767	  -0.21759	  -0.22561	  -0.23058	  -0.23074	  -0.22562	  -0.21757	  -0.20932	  -0.20175	  -0.19722	  -0.19961	  -0.20760	  -0.21442	  -0.21715	  -0.22001	  -0.22489	  -0.22742	  -0.22425	  -0.21561	  -0.20323	  -0.19053	  -0.18173	  -0.18032	  -0.18625	  -0.19504	  -0.20205	  -0.20513	  -0.20415	  -0.20070	  -0.19651	  -0.19108	  -0.18306	  -0.17482	  -0.17123	  -0.17391	  -0.17958	  -0.18460	  -0.18879	  -0.19253	  -0.19525	  -0.19743	  -0.19835	  -0.19511
   0.05892	   0.06739	   0.07325	   0.07691	   0.07953	   0.08212	   0.08565	   0.08901	   0.09006	   0.08968	   0.08986	   0.08992	   0.08874	   0.08681	   0.08299	   0.07486	   0.06332	   0.05214	   0.04388	   0.03730	   0.02951	   0.02179	   0.01887	   0.02170	   0.02604	   0.02831	   0.02862	   0.02587	   0.01862	   0.01050	   0.00643	   0.00697	   0.00794	   0.00582	   0.00281	   0.00148	   0.00071	  -0.00090	  -0.00346	  -0.00574	  -0.00727	  -0.00894	  -0.01239	  -0.02021	  -0.02990	  -0.03427	  -0.03187	  -0.02685	  -0.02181	  -0.01695	  -0.01236	  -0.00921	  -0.00891	  -0.01057	  -0.01228	  -0.01476	  -0.01907	  -0.02344	  -0.02495	  -0.02195	  -0.01473	  -0.00517	   0.00302	   0.00670	   0.00828	   0.01406	   0.02742	   0.04721	   0.07094	   0.09473	   0.11171	   0.11451	   0.09811	   0.06203	   0.00967	  -0.05325	  -0.11660	  -0.16752	  -0.19682	  -0.20184	  -0.18833	  -0.16756	  -0.14753	  -0.12906	  -0.10323	  -0.04959	   0.04893	   0.18747	   0.34283	   0.48888	   0.60497	   0.68190	   0.72665	   0.75316	   0.77160	   0.78857	   0.80384	   0.80818	   0.78948	   0.73849	   0.65445	   0.54764	   0.43394	   0.32614	   0.22722	   0.13416	   0.04804	  -0.02618	  -0.08475	  -0.12507	  -0.14769	  -0.15912	  -0.16765	  -0.17887	  -0.19403	  -0.21003	  -0.22248	  -0.22817	  -0.22721	  -0.22401	  -0.22210	  -0.22051	  -0.21851	  -0.21891	  -0.22345	  -0.22988	  -0.23496	  -0.23834	  -0.24100	  -0.24191	  -0.24039	  -0.23683	  -0.22972	  -0.21922	  -0.21016	  -0.20607	  -0.20653	  -0.21022	  -0.21484	  -0.21894	  -0.22319	  -0.22704	  -0.22714	  -0.22073	  -0.20956	  -0.19946	  -0.19380	  -0.19074	  -0.18895	  -0.18957	  -0.19297	  -0.19901	  -0.20648	  -0.21152	  -0.21044	  -0.20376	  -0.19532	  -0.18784	  -0.18148	  -0.17672
   0.03016	   0.03518	   0.03940	   0.04232	   0.04418	   0.04567	   0.04790	   0.05185	   0.05697	   0.06224	   0.06804	   0.07592	   0.08730	   0.10146	   0.11352	   0.11687	   0.10888	   0.09230	   0.07199	   0.05203	   0.03573	   0.02562	   0.02171	   0.02186	   0.02329	   0.02362	   0.02288	   0.02188	   0.01834	   0.00894	  -0.00490	  -0.01697	  -0.02179	  -0.01918	  -0.01280	  -0.00515	   0.00289	   0.00934	   0.01159	   0.00884	   0.00261	  -0.00540	  -0.01390	  -0.02085	  -0.02586	  -0.03051	  -0.03324	  -0.03033	  -0.02210	  -0.01284	  -0.00640	  -0.00341	  -0.00299	  -0.00520	  -0.01008	  -0.01656	  -0.02231	  -0.02477	  -0.02306	  -0.01821	  -0.01121	  -0.00106	   0.01177	   0.02201	   0.02593	   0.02736	   0.03353	   0.04878	   0.07248	   0.09966	   0.12381	   0.13773	   0.13341	   0.10800	   0.06567	   0.01171	  -0.04698	  -0.10101	  -0.14320	  -0.16956	  -0.17861	  -0.17375	  -0.16105	  -0.14022	  -0.09944	  -0.02102	   0.10434	   0.26676	   0.43996	   0.59351	   0.70646	   0.77505	   0.81000	   0.82511	   0.82783	   0.82018	   0.80101	   0.76516	   0.70711	   0.62649	   0.52644	   0.41104	   0.28818	   0.16914	   0.06445	  -0.01938	  -0.07989	  -0.11540	  -0.12896	  -0.13261	  -0.13706	  -0.14413	  -0.15211	  -0.16008	  -0.16771	  -0.17598	  -0.18624	  -0.19603	  -0.19949	  -0.19443	  -0.18510	  -0.17695	  -0.17191	  -0.17031	  -0.17445	  -0.18430	  -0.19379	  -0.19792	  -0.19825	  -0.19798	  -0.19689	  -0.19274	  -0.18545	  -0.17748	  -0.17075	  -0.16656	  -0.16689	  -0.17244	  -0.17935	  -0.18245	  -0.18219	  -0.18137	  -0.17967	  -0.17615	  -0.17133	  -0.16563	  -0.15969	  -0.15704	  -0.15986	  -0.16347	  -0.16404	  -0.16487	  -0.16815	  -0.17107	  -0.17252	  -0.17173	  -0.16616	  -0.15744	  -0.15048	  -0.14787
   0.02251	   0.01700	   0.01135	   0.00788	   0.00960	   0.01816	   0.03269	   0.05036	   0.06691	   0.07915	   0.08621	   0.08745	   0.08246	   0.07182	   0.05784	   0.04497	   0.03524	   0.02732	   0.02263	   0.02383	   0.02780	   0.02912	   0.02686	   0.02363	   0.02036	   0.01318	  -0.00031	  -0.01690	  -0.03214	  -0.04072	  -0.03826	  -0.02666	  -0.01206	   0.00087	   0.00910	   0.00991	   0.00205	  -0.01317	  -0.03078	  -0.04343	  -0.04711	  -0.04459	  -0.04015	  -0.03500	  -0.02934	  -0.02406	  -0.02037	  -0.01889	  -0.01965	  -0.02298	  -0.02899	  -0.03562	  -0.03871	  -0.03606	  -0.02968	  -0.02179	  -0.01344	  -0.00738	  -0.00652	  -0.00934	  -0.01163	  -0.01211	  -0.01343	  -0.01748	  -0.02064	  -0.01578	   0.00229	   0.03309	   0.07068	   0.10598	   0.12862	   0.12927	   0.10383	   0.05636	  -0.00513	  -0.07333	  -0.14068	  -0.19543	  -0.22301	  -0.21688	  -0.18291	  -0.13370	  -0.08469	  -0.04939	  -0.02909	  -0.00517	   0.05096	   0.15382	   0.29266	   0.44188	   0.57568	   0.67731	   0.74381	   0.78209	   0.80127	   0.80876	   0.80605	   0.78815	   0.75032	   0.69180	   0.61684	   0.53397	   0.44902	   0.35998	   0.26275	   0.15934	   0.05799	  -0.03148	  -0.10175	  -0.15042	  -0.17890	  -0.19154	  -0.19534	  -0.19639	  -0.19664	  -0.19674	  -0.19907	  -0.20320	  -0.20522	  -0.20401	  -0.20331	  -0.20756	  -0.21687	  -0.22751	  -0.23535	  -0.23733	  -0.23319	  -0.22563	  -0.21776	  -0.21130	  -0.20763	  -0.20675	  -0.20649	  -0.20608	  -0.20705	  -0.21041	  -0.21429	  -0.21424	  -0.20844	  -0.20071	  -0.19535	  -0.19190	  -0.18872	  -0.18715	  -0.18719	  -0.18692	  -0.18839	  -0.19407	  -0.20084	  -0.20412	  -0.20286	  -0.19808	  -0.19034	  -0.18039	  -0.17069	  -0.16538	  -0.16714	  -0.17379	  -0.18146	  -0.18949
   0.02203	   0.02762	   0.03159	   0.03384	   0.03654	   0.04016	   0.04358	   0.04439	   0.04163	   0.03911	   0.04149	   0.05057	   0.06572	   0.08260	   0.09475	   0.09774	   0.09040	   0.07638	   0.06293	   0.05358	   0.04597	   0.03684	   0.02478	   0.01170	   0.00242	  -0.00061	   0.00104	   0.00523	   0.00883	   0.00741	   0.00049	  -0.00757	  -0.01274	  -0.01405	  -0.01403	  -0.01562	  -0.01911	  -0.02334	  -0.02573	  -0.02421	  -0.02194	  -0.02326	  -0.02711	  -0.03151	  -0.03689	  -0.04279	  -0.04801	  -0.05138	  -0.05024	  -0.04200	  -0.02999	  -0.02249	  -0.02212	  -0.02469	  -0.02670	  -0.02751	  -0.02812	  -0.03009	  -0.03305	  -0.03361	  -0.03078	  -0.02619	  -0.01916	  -0.00955	   0.00031	   0.00908	   0.01839	   0.03134	   0.04913	   0.07001	   0.08877	   0.09648	   0.08653	   0.05887	   0.01466	  -0.04395	  -0.10731	  -0.16023	  -0.19193	  -0.20124	  -0.19282	  -0.17402	  -0.15201	  -0.12559	  -0.08181	  -0.00248	   0.12222	   0.28091	   0.44500	   0.58593	   0.68827	   0.75136	   0.78426	   0.80008	   0.80725	   0.80451	   0.78405	   0.73762	   0.66344	   0.56778	   0.45862	   0.34094	   0.21970	   0.10395	   0.00417	  -0.07346	  -0.12766	  -0.15955	  -0.17302	  -0.17495	  -0.17216	  -0.16988	  -0.17182	  -0.17920	  -0.19126	  -0.20530	  -0.21712	  -0.22411	  -0.22600	  -0.22359	  -0.21826	  -0.21051	  -0.20140	  -0.19340	  -0.18832	  -0.18749	  -0.19202	  -0.19982	  -0.20617	  -0.20969	  -0.21132	  -0.20977	  -0.20530	  -0.20063	  -0.19653	  -0.19186	  -0.18632	  -0.18161	  -0.17944	  -0.18010	  -0.18334	  -0.18828	  -0.19298	  -0.19450	  -0.19102	  -0.18423	  -0.17657	  -0.16917	  -0.16476	  -0.16490	  -0.16646	  -0.16798	  -0.17065	  -0.17332	  -0.17530	  -0.17698	  -0.17690	  -0.17331	  -0.16576	  -0.15598
   0.01682	   0.02318	   0.03470	   0.05052	   0.06782	   0.08035	   0.08462	   0.08534	   0.08818	   0.09204	   0.09241	   0.08869	   0.08382	   0.08019	   0.07834	   0.07550	   0.06829	   0.05831	   0.04818	   0.03599	   0.02078	   0.00613	  -0.00317	  -0.00439	   0.00040	   0.00558	   0.00625	   0.00202	  -0.00269	  -0.00417	  -0.00276	  -0.00020	   0.00213	   0.00226	  -0.00228	  -0.01131	  -0.01993	  -0.02313	  -0.02052	  -0.01448	  -0.00830	  -0.00561	  -0.00729	  -0.01146	  -0.01644	  -0.02087	  -0.02326	  -0.02501	  -0.02788	  -0.02789	  -0.02159	  -0.01226	  -0.00472	  -0.00101	  -0.00156	  -0.00480	  -0.00762	  -0.00982	  -0.01225	  -0.01395	  -0.01379	  -0.00882	   0.00412	   0.02178	   0.03687	   0.04932	   0.06673	   0.09227	   0.11757	   0.13036	   0.12532	   0.10532	   0.07598	   0.03937	  -0.00579	  -0.05620	  -0.10423	  -0.14393	  -0.17026	  -0.18173	  -0.18372	  -0.18156	  -0.17588	  -0.16384	  -0.13764	  -0.08373	   0.01184	   0.15202	   0.31845	   0.47912	   0.60839	   0.69658	   0.74620	   0.76700	   0.77522	   0.78478	   0.79441	   0.79305	   0.77169	   0.72684	   0.66100	   0.57908	   0.48354	   0.37553	   0.26070	   0.14983	   0.05235	  -0.02621	  -0.08185	  -0.11378	  -0.12783	  -0.13301	  -0.13525	  -0.13786	  -0.14472	  -0.15852	  -0.17711	  -0.19469	  -0.20563	  -0.20767	  -0.20422	  -0.20087	  -0.19992	  -0.19968	  -0.19873	  -0.19787	  -0.19759	  -0.19836	  -0.20198	  -0.20935	  -0.21683	  -0.21871	  -0.21420	  -0.20650	  -0.19765	  -0.18892	  -0.18289	  -0.18216	  -0.18591	  -0.19118	  -0.19736	  -0.20364	  -0.20583	  -0.20279	  -0.19837	  -0.19336	  -0.18619	  -0.17935	  -0.17534	  -0.17304	  -0.17142	  -0.17007	  -0.17065	  -0.17676	  -0.18550	  -0.18836	  -0.18327	  -0.17579	  -0.17039	  -0.16633
   0.00165	   0.00161	   0.00405	   0.01065	   0.02204	   0.03550	   0.04693	   0.05590	   0.06287	   0.06625	   0.06575	   0.06276	   0.05862	   0.05444	   0.05004	   0.04504	   0.03961	   0.03416	   0.02922	   0.02416	   0.01841	   0.01185	   0.00526	   0.00131	   0.00048	   0.00085	   0.00082	  -0.00151	  -0.00697	  -0.01314	  -0.01682	  -0.01796	  -0.01848	  -0.01804	  -0.01552	  -0.01273	  -0.01334	  -0.01686	  -0.01801	  -0.01521	  -0.01217	  -0.01162	  -0.01476	  -0.02279	  -0.03423	  -0.04390	  -0.04685	  -0.04372	  -0.03877	  -0.03337	  -0.02611	  -0.01654	  -0.00711	  -0.00093	   0.00018	  -0.00518	  -0.01543	  -0.02518	  -0.03097	  -0.03273	  -0.02970	  -0.02085	  -0.00755	   0.00706	   0.01896	   0.02596	   0.03111	   0.04139	   0.06149	   0.08648	   0.10359	   0.10263	   0.08147	   0.04435	  -0.00305	  -0.05723	  -0.11353	  -0.16194	  -0.18954	  -0.18778	  -0.15947	  -0.11933	  -0.08482	  -0.06327	  -0.04614	  -0.01300	   0.05691	   0.17020	   0.31289	   0.45857	   0.58361	   0.67542	   0.73185	   0.75936	   0.77062	   0.77784	   0.78395	   0.78072	   0.75921	   0.71886	   0.66273	   0.59201	   0.50804	   0.41185	   0.30361	   0.18719	   0.07208	  -0.02912	  -0.10507	  -0.15134	  -0.17102	  -0.17283	  -0.16930	  -0.16949	  -0.17569	  -0.18712	  -0.20070	  -0.21381	  -0.22627	  -0.23599	  -0.23826	  -0.23262	  -0.22402	  -0.21614	  -0.20957	  -0.20514	  -0.20525	  -0.21084	  -0.21956	  -0.22913	  -0.23820	  -0.24401	  -0.24259	  -0.23258	  -0.21817	  -0.20543	  -0.19699	  -0.19353	  -0.19601	  -0.20304	  -0.21081	  -0.21628	  -0.21825	  -0.21728	  -0.21400	  -0.20859	  -0.20217	  -0.19519	  -0.18683	  -0.17864	  -0.17427	  -0.17680	  -0.18785	  -0.20344	  -0.21526	  -0.21907	  -0.21525	  -0.20551	  -0.19371	  -0.18419
